timestamp,time,price,volume
34200410816161,09:30:00.410,0.0000,0
34306083488192,09:31:46.083,105.0700,100
34306083488192,09:31:46.083,105.0700,14
34306083488192,09:31:46.083,105.0700,36
34306084641456,09:31:46.084,105.0900,100
34306162811116,09:31:46.162,105.1550,14
34306221697946,09:31:46.221,105.0800,74
34351014797697,09:32:31.014,105.0500,100
34351014797697,09:32:31.014,105.0300,26
34351014797697,09:32:31.014,105.0200,74
34351014828649,09:32:31.014,105.0200,26
34351014828649,09:32:31.014,105.0200,100
34351014856524,09:32:31.014,105.0300,100
34351015356431,09:32:31.015,104.9900,3
34351015445870,09:32:31.015,104.9900,72
34351015453118,09:32:31.015,104.9900,25
34351019609493,09:32:31.019,104.9200,43
34352015173573,09:32:32.015,104.8800,3
34537010063597,09:35:37.010,104.7200,2
34588005448196,09:36:28.005,104.6800,2
34636256018167,09:37:16.256,104.8100,100
34636256018167,09:37:16.256,104.8200,3
34636256018167,09:37:16.256,104.8200,100
34636256018167,09:37:16.256,104.8200,2
34636256018167,09:37:16.256,104.8200,76
34636256101373,09:37:16.256,104.8200,100
34636256661170,09:37:16.256,104.8400,90
34636256666307,09:37:16.256,104.8400,10
34636256691616,09:37:16.256,104.8600,38
34636256955228,09:37:16.256,104.8600,2
34636257049610,09:37:16.257,104.8600,29
34636257124883,09:37:16.257,104.8600,31
34636257124883,09:37:16.257,104.8700,100
34636257124883,09:37:16.257,104.9000,100
34636257124883,09:37:16.257,104.9600,31
34636257244432,09:37:16.257,104.9600,69
34636257623193,09:37:16.257,104.9600,10
34636257623193,09:37:16.257,104.9600,90
34636285179332,09:37:16.285,105.0200,50
34636285183486,09:37:16.285,105.0200,50
34636286459025,09:37:16.286,105.0100,10
34636286460590,09:37:16.286,105.0100,50
34636286486052,09:37:16.286,105.0100,40
34642157925997,09:37:22.157,105.0700,40
34642158360342,09:37:22.158,105.0700,39
34642158369953,09:37:22.158,105.0700,74
34650708573535,09:37:30.708,105.0700,22
34694014626789,09:38:14.014,105.1200,100
34694014626789,09:38:14.014,105.1400,102
34694014664759,09:38:14.014,105.1400,137
34694014665301,09:38:14.014,105.1400,61
34694014665301,09:38:14.014,105.1400,39
34694014668049,09:38:14.014,105.1400,50
34694014680712,09:38:14.014,105.1400,1
34694014680712,09:38:14.014,105.1500,2
34694014680712,09:38:14.014,105.1500,97
34694014693044,09:38:14.014,105.1500,3
34694014693044,09:38:14.014,105.1500,97
34694014694692,09:38:14.014,105.1500,3
34694014694692,09:38:14.014,105.1500,12
34694014725556,09:38:14.014,105.1500,3
34694014805798,09:38:14.014,105.1500,85
34694015105673,09:38:14.015,105.1700,100
34709158121568,09:38:29.158,105.1000,100
34709158547886,09:38:29.158,105.0900,100
34727116322731,09:38:47.116,105.2000,100
34768009010931,09:39:28.009,105.2200,2
34794712663902,09:39:54.712,105.2800,70
34794712663902,09:39:54.712,105.2800,17
34794712663902,09:39:54.712,105.2800,100
34794712663902,09:39:54.712,105.2900,17
34794712663902,09:39:54.712,105.2900,76
34794712663902,09:39:54.712,105.2900,100
34807993672188,09:40:07.993,105.4100,100
34807994193194,09:40:07.994,105.4000,100
34828009231455,09:40:28.009,105.4300,2
34860004806808,09:41:00.004,105.3700,100
34883421982632,09:41:23.421,105.4900,100
34883421982632,09:41:23.421,105.4900,100
34883421982632,09:41:23.421,105.4900,16
34883422071021,09:41:23.422,105.4900,100
34883422745041,09:41:23.422,105.4900,100
34883422829963,09:41:23.422,105.4800,100
34883422909489,09:41:23.422,105.5000,100
34883423267231,09:41:23.423,105.5000,100
34883424820992,09:41:23.424,105.5400,76
34883429340197,09:41:23.429,105.5400,24
34883439164467,09:41:23.439,105.5000,100
34883513161002,09:41:23.513,105.5000,100
34883513161002,09:41:23.513,105.5000,5
35008009565405,09:43:28.009,105.5300,2
35008009630803,09:43:28.009,105.5400,50
35062014428843,09:44:22.014,105.4700,65
35062014473351,09:44:22.014,105.4700,35
35062014594725,09:44:22.014,105.4200,50
35062015110405,09:44:22.015,105.4200,50
35068007105936,09:44:28.007,105.2700,2
35068007142246,09:44:28.007,105.2700,60
35068007570424,09:44:28.007,105.3000,15
35068008176639,09:44:28.008,105.3100,11
35093945451706,09:44:53.945,105.4200,100
35128019053153,09:45:28.019,105.4400,3
35136039894080,09:45:36.039,105.3800,100
35188009860791,09:46:28.009,105.4100,3
35212444573878,09:46:52.444,105.4000,1
35248008792225,09:47:28.008,105.3900,2
35253233810456,09:47:33.233,105.4400,85
35253233930134,09:47:33.233,105.3900,10
35253234522747,09:47:33.234,105.4400,10
35253234529980,09:47:33.234,105.4500,2
35253234530494,09:47:33.234,105.4500,33
35253234727485,09:47:33.234,105.4700,3
35254281982782,09:47:34.281,105.4800,100
35260893778598,09:47:40.893,105.4900,50
35281982645969,09:48:01.982,105.5100,1
35289166881096,09:48:09.166,105.4500,2
35289981349266,09:48:09.981,105.4400,100
35289981382022,09:48:09.981,105.4400,2
35289981386397,09:48:09.981,105.4300,2
35289981386397,09:48:09.981,105.4300,48
35289981388330,09:48:09.981,105.4200,25
35289981455679,09:48:09.981,105.4200,44
35289981455679,09:48:09.981,105.4200,6
35289982389330,09:48:09.982,105.4100,14
35290068918209,09:48:10.068,105.4200,100
35367958686444,09:49:27.958,105.3500,2
35367958757682,09:49:27.958,105.3500,2
35367958855046,09:49:27.958,105.3500,96
35367958869097,09:49:27.958,105.3400,2
35367958869097,09:49:27.958,105.3400,98
35367958870591,09:49:27.958,105.3400,2
35367958956222,09:49:27.958,105.3300,100
35368049909838,09:49:28.049,105.3200,1
35368049968946,09:49:28.049,105.3200,2
35428019598085,09:50:28.019,105.2800,2
35435092508301,09:50:35.092,105.3400,3
35435092535947,09:50:35.092,105.3400,97
35435092610395,09:50:35.092,105.3400,100
35448799026423,09:50:48.799,105.3100,1
35451821788915,09:50:51.821,105.2600,2
35451821788915,09:50:51.821,105.2600,98
35492415988228,09:51:32.415,105.2000,2
35492416074035,09:51:32.416,105.2000,100
35517836307159,09:51:57.836,105.1100,2
35517836307159,09:51:57.836,105.1100,100
35548136369771,09:52:28.136,105.0300,100
35549012078802,09:52:29.012,104.9600,2
35557882406199,09:52:37.882,104.9000,27
35562384279963,09:52:42.384,104.9400,100
35562384361469,09:52:42.384,104.9400,100
35562384881195,09:52:42.384,104.9500,10
35562386259424,09:52:42.386,104.9700,100
35562401580267,09:52:42.401,104.9300,100
35600691557018,09:53:20.691,104.9200,1
35608722496125,09:53:28.722,104.9300,2
35612422127307,09:53:32.422,104.9600,100
35621061110265,09:53:41.061,104.9600,100
35655094166895,09:54:15.094,104.9900,100
35655094186326,09:54:15.094,105.0000,67
35655094211948,09:54:15.094,105.0000,33
35655094230388,09:54:15.094,105.0100,100
35655099941941,09:54:15.099,105.0500,66
35672427088917,09:54:32.427,105.1500,100
35673963419559,09:54:33.963,105.1600,58
35700003136731,09:55:00.003,105.1300,100
35700003449669,09:55:00.003,105.1000,14
35700005860647,09:55:00.005,105.1200,46
35700005887886,09:55:00.005,105.1200,54
35728005596797,09:55:28.005,105.1100,2
35760211748764,09:56:00.211,105.0500,87
35760211778631,09:56:00.211,105.0500,13
35760212188870,09:56:00.212,105.0300,13
35760212194564,09:56:00.212,105.0200,13
35760212195957,09:56:00.212,105.0100,1
35773153335452,09:56:13.153,104.9800,100
35773153447715,09:56:13.153,104.9800,78
35773153472094,09:56:13.153,104.9800,22
35839236880734,09:57:19.236,105.0000,2
35839237637048,09:57:19.237,105.0100,100
35839237665947,09:57:19.237,105.0100,100
35839266544296,09:57:19.266,105.0500,100
35848738580018,09:57:28.738,105.0900,5
35851451408136,09:57:31.451,105.1500,3
35882406911692,09:58:02.406,105.0900,2
35882406975812,09:58:02.406,105.0600,100
35882407497196,09:58:02.407,105.0400,100
35891983914353,09:58:11.983,104.9600,100
35919749736611,09:58:39.749,105.0600,61
35919749762592,09:58:39.749,105.0600,39
35919749762592,09:58:39.749,105.0600,151
36021148890324,10:00:21.148,105.0500,100
36021148890324,10:00:21.148,105.0500,100
36021148890324,10:00:21.148,105.0400,100
36021149141083,10:00:21.149,105.0400,29
36021177838051,10:00:21.177,104.9200,100
36090020944395,10:01:30.020,105.0000,100
36140054972537,10:02:20.054,105.0000,21
36164608523616,10:02:44.608,104.9500,78
36164608551146,10:02:44.608,104.9500,22
36164608551146,10:02:44.608,104.9500,100
36166694507428,10:02:46.694,104.9300,14
36166696302262,10:02:46.696,104.9300,5
36166776011166,10:02:46.776,104.9600,100
36167580749243,10:02:47.580,104.9600,45
36167580749243,10:02:47.580,104.9700,55
36167580778362,10:02:47.580,104.9700,45
36167580867432,10:02:47.580,104.9800,60
36167580867432,10:02:47.580,104.9800,100
36167580867432,10:02:47.580,104.9800,15
36167582162318,10:02:47.582,105.0000,4
36167589508315,10:02:47.589,104.9800,100
36167589508315,10:02:47.589,104.9800,100
36167844155944,10:02:47.844,104.9800,100
36168213387445,10:02:48.213,104.9700,100
36168363143689,10:02:48.363,104.9400,100
36275025767056,10:04:35.025,104.9400,5
36275025767056,10:04:35.025,104.9400,100
36275025767056,10:04:35.025,104.9400,100
36275113992676,10:04:35.113,104.9400,10
36311926645417,10:05:11.926,104.9000,50
36311926923148,10:05:11.926,104.9000,50
36342259333591,10:05:42.259,104.9300,14
36375023787969,10:06:15.023,104.9300,3
36405028550931,10:06:45.028,104.9200,50
36405028575493,10:06:45.028,104.9200,50
36405050951834,10:06:45.050,104.9200,10
36448007303315,10:07:28.007,104.8700,35
36448007303315,10:07:28.007,104.8700,100
36448008671040,10:07:28.008,104.9000,2
36450044520790,10:07:30.044,104.9200,14
36508009357874,10:08:28.009,104.9100,2
36540091972570,10:09:00.091,104.8800,10
36540092218557,10:09:00.092,104.8800,10
36540157353985,10:09:00.157,104.8800,15
36540381861531,10:09:00.381,104.8400,100
36568549950739,10:09:28.549,104.8600,64
36614108855197,10:10:14.108,104.9100,2
36614108884808,10:10:14.108,104.9200,13
36614109519825,10:10:14.109,104.9300,100
36614109519825,10:10:14.109,104.9300,100
36697238421177,10:11:37.238,104.9900,100
36698800648145,10:11:38.800,104.9800,100
36698801039791,10:11:38.801,104.9900,10
36704724901055,10:11:44.724,104.9400,100
36745884894762,10:12:25.884,104.9400,100
36784145123817,10:13:04.145,105.0000,50
36798072718077,10:13:18.072,105.0000,100
36801498813248,10:13:21.498,105.0000,2
36801498813248,10:13:21.498,105.0100,98
36804100429115,10:13:24.100,104.9700,90
36804100466477,10:13:24.100,104.9800,57
36804101001741,10:13:24.101,104.9800,43
36808348467282,10:13:28.348,104.9700,100
36808349378049,10:13:28.349,104.9700,100
36808349378049,10:13:28.349,104.9700,10
36808349378049,10:13:28.349,104.9700,10
36810650377647,10:13:30.650,104.9900,100
36822066162752,10:13:42.066,104.9800,2
36824482408441,10:13:44.482,104.9400,80
36826550455806,10:13:46.550,104.9300,100
36826553608783,10:13:46.553,104.9400,5
36826553620172,10:13:46.553,104.9400,25
36826841870426,10:13:46.841,104.9500,2
36827066861160,10:13:47.066,104.9600,5
36827066861160,10:13:47.066,104.9600,26
36827129858209,10:13:47.129,104.9700,50
36827129885010,10:13:47.129,104.9700,50
36827503457999,10:13:47.503,104.9400,100
36832030024378,10:13:52.030,104.9200,100
36844185207830,10:14:04.185,104.8700,100
36852460438575,10:14:12.460,104.8900,14
36865329319640,10:14:25.329,104.8700,21
36865329543931,10:14:25.329,104.8700,21
36865329749000,10:14:25.329,104.8700,17
36865329881969,10:14:25.329,104.8700,4
36865329985171,10:14:25.329,104.8700,13
36865330176890,10:14:25.330,104.8700,4
36870320419045,10:14:30.320,104.9100,79
36870320642753,10:14:30.320,104.9100,3
36870320713621,10:14:30.320,104.9300,5
36870325810400,10:14:30.325,104.9300,100
36870326190946,10:14:30.326,104.9500,100
36876852039530,10:14:36.852,104.9650,100
36889600247463,10:14:49.600,104.9700,100
36891183389668,10:14:51.183,104.9700,100
36894159333088,10:14:54.159,105.0100,100
36902649179764,10:15:02.649,104.9900,100
36902649179764,10:15:02.649,104.9900,100
36907369220804,10:15:07.369,105.0000,100
36920298131157,10:15:20.298,104.9700,100
36920298198745,10:15:20.298,104.9700,100
36920298198745,10:15:20.298,104.9700,100
36920363667473,10:15:20.363,104.9500,100
36926580813579,10:15:26.580,104.9300,100
36926580820407,10:15:26.580,104.9300,100
36926582314269,10:15:26.582,104.9200,56
36929929972966,10:15:29.929,104.9400,13
36929930004543,10:15:29.930,104.9400,6
36929930542660,10:15:29.930,104.9400,81
36929930542660,10:15:29.930,104.9300,100
36929930602693,10:15:29.930,104.9300,100
36929930602693,10:15:29.930,104.9300,100
36930897680273,10:15:30.897,104.9200,300
36931036865628,10:15:31.036,104.9400,100
36931036873976,10:15:31.036,104.9300,100
36933429712298,10:15:33.429,104.9300,20
36933429717380,10:15:33.429,104.9300,80
36933432229037,10:15:33.432,104.9100,18
36933432229037,10:15:33.432,104.9100,82
36933432258804,10:15:33.432,104.9100,18
36939058739862,10:15:39.058,104.9300,100
36951168150810,10:15:51.168,104.8900,20
36951168150810,10:15:51.168,104.8900,100
36951169045216,10:15:51.169,104.8800,100
36957665199050,10:15:57.665,104.9000,100
36957680558157,10:15:57.680,104.9000,100
36957680558157,10:15:57.680,104.9000,100
36960003061408,10:16:00.003,104.9000,2
36960003073618,10:16:00.003,104.8800,100
36960003073618,10:16:00.003,104.8800,100
36961566257895,10:16:01.566,104.8700,78
36961566269853,10:16:01.566,104.8700,22
36961566832069,10:16:01.566,104.8400,100
36961582364286,10:16:01.582,104.8300,100
36961582364286,10:16:01.582,104.8100,100
36961582364286,10:16:01.582,104.8100,14
36963340290354,10:16:03.340,104.8100,100
36968173342420,10:16:08.173,104.8600,24
36973307193499,10:16:13.307,104.8700,20
36973307193499,10:16:13.307,104.8700,4
36973307193499,10:16:13.307,104.8700,76
36973307229303,10:16:13.307,104.8700,24
36979041194106,10:16:19.041,104.8300,100
36979053984340,10:16:19.053,104.8200,40
36997152952573,10:16:37.152,104.8600,100
36997152952573,10:16:37.152,104.8500,100
36997341198367,10:16:37.341,104.8600,100
37000016010175,10:16:40.016,104.9200,100
37038255285482,10:17:18.255,104.8200,100
37048030093821,10:17:28.030,104.8400,2
37059080638906,10:17:39.080,104.8700,100
37059080638906,10:17:39.080,104.8700,16
37059080661915,10:17:39.080,104.8700,84
37059081261802,10:17:39.081,104.9000,100
37068343014400,10:17:48.343,104.8300,100
37080061067149,10:18:00.061,104.8000,100
37087395395833,10:18:07.395,104.7800,100
37087395435064,10:18:07.395,104.7700,28
37087395855943,10:18:07.395,104.7700,9
37092079945092,10:18:12.079,104.7900,100
37100884550104,10:18:20.884,104.7500,100
37101223967266,10:18:21.223,104.7700,50
37104809538692,10:18:24.809,104.7500,50
37104809859945,10:18:24.809,104.7500,4
37104809885654,10:18:24.809,104.7500,96
37105021240182,10:18:25.021,104.7500,100
37105098161025,10:18:25.098,104.7700,4
37113148446303,10:18:33.148,104.7500,78
37113148667041,10:18:33.148,104.7500,22
37113821090583,10:18:33.821,104.7500,100
37123013850917,10:18:43.013,104.7400,100
37128572210219,10:18:48.572,104.7500,100
37128572582331,10:18:48.572,104.7600,100
37137666725739,10:18:57.666,104.7300,100
37168010945500,10:19:28.010,104.7600,2
37171263391748,10:19:31.263,104.7900,100
37179484529090,10:19:39.484,104.7700,100
37179484627364,10:19:39.484,104.7700,83
37179484670273,10:19:39.484,104.7700,17
37208793420059,10:20:08.793,104.8100,29
37220050115249,10:20:20.050,104.8200,14
37220050115249,10:20:20.050,104.8200,102
37220051965992,10:20:20.051,104.8300,11
37224846643999,10:20:24.846,104.8500,6
37234848531846,10:20:34.848,104.8800,50
37234849555540,10:20:34.849,104.8800,100
37236488087630,10:20:36.488,104.9100,14
37242612412698,10:20:42.612,104.9100,19
37263356081358,10:21:03.356,104.9600,2
37263497215486,10:21:03.497,104.9300,100
37302604754266,10:21:42.604,104.8800,100
37345649125546,10:22:25.649,104.8300,100
37349281504800,10:22:29.281,104.8700,2
37393489408845,10:23:13.489,104.9000,98
37412524336343,10:23:32.524,104.8700,2
37464680325691,10:24:24.680,104.9100,100
37464680325691,10:24:24.680,104.9100,100
37464680325691,10:24:24.680,104.9100,119
37464680325691,10:24:24.680,104.9100,6
37528006753032,10:25:28.006,104.9300,2
37528536149553,10:25:28.536,104.9600,16
37544493324848,10:25:44.493,104.9700,14
37544493332893,10:25:44.493,104.9700,67
37544493341924,10:25:44.493,104.9700,20
37544589588301,10:25:44.589,105.0000,16
37570122548025,10:26:10.122,105.0200,100
37570122618902,10:26:10.122,105.0200,6
37589921290205,10:26:29.921,105.0100,100
37589923220852,10:26:29.923,105.0100,10
37622499715478,10:27:02.499,104.9400,100
37622508774867,10:27:02.508,104.9000,100
37637855512252,10:27:17.855,104.9000,100
37641357743125,10:27:21.357,104.9000,30
37648009146772,10:27:28.009,104.9100,2
37648304991428,10:27:28.304,104.9300,100
37648305076117,10:27:28.305,104.9400,100
37648305076117,10:27:28.305,104.9400,16
37708009844131,10:28:28.009,104.9600,2
37708041680732,10:28:28.041,104.9700,60
37711876796008,10:28:31.876,104.9300,20
37737828536702,10:28:57.828,104.9700,6
37768007401065,10:29:28.007,104.9500,2
37768007807128,10:29:28.007,104.9500,2
37768007835478,10:29:28.007,104.9500,98
37828013471913,10:30:28.013,104.9600,2
37848489667140,10:30:48.489,105.0000,100
37848489705395,10:30:48.489,105.0000,5
37848490333459,10:30:48.490,105.0000,1
37848490407080,10:30:48.490,105.0000,94
37848490407080,10:30:48.490,105.0000,5
37848490503591,10:30:48.490,105.0100,11
37848490658369,10:30:48.490,105.0200,6
37853727299982,10:30:53.727,105.0200,100
37880030857444,10:31:20.030,105.0100,76
37888299896998,10:31:28.299,105.0000,3
37918110322047,10:31:58.110,105.0500,4
37918110325209,10:31:58.110,105.0500,50
37918110389143,10:31:58.110,105.0500,33
37918110582940,10:31:58.110,105.0500,13
37918110582940,10:31:58.110,105.0500,100
37918110582940,10:31:58.110,105.0500,100
37918110670693,10:31:58.110,105.0500,100
37918110693625,10:31:58.110,105.0500,12
37918111432546,10:31:58.111,105.0800,49
37918489512343,10:31:58.489,105.0800,51
37920455729945,10:32:00.455,105.0800,41
37920455802754,10:32:00.455,105.0800,18
37920455836321,10:32:00.455,105.0800,23
37948011272484,10:32:28.011,105.1250,2
37948031939574,10:32:28.031,105.1250,3
37948148033376,10:32:28.148,105.1250,16
37948732432313,10:32:28.732,105.1250,100
37953488430175,10:32:33.488,105.1250,2
37953488846762,10:32:33.488,105.1250,2
37953488894026,10:32:33.488,105.1250,2
37953489066736,10:32:33.489,105.1250,2
37955453044680,10:32:35.453,105.1250,9
37963058051850,10:32:43.058,105.1250,18
37969488764037,10:32:49.488,105.1250,100
37970006151580,10:32:50.006,105.1250,42
37972858505517,10:32:52.858,105.1250,100
37988551946732,10:33:08.551,105.1200,24
37990895448987,10:33:10.895,105.1500,100
37990982249320,10:33:10.982,105.1500,6
38020486340057,10:33:40.486,105.1600,100
38045482576586,10:34:05.482,105.2100,20
38052010780661,10:34:12.010,105.1700,100
38052010793793,10:34:12.010,105.1500,41
38052010812280,10:34:12.010,105.1500,59
38052010887076,10:34:12.010,105.1800,100
38052019993499,10:34:12.019,105.1400,40
38052019993499,10:34:12.019,105.1400,72
38052020061306,10:34:12.020,105.1400,28
38052021673863,10:34:12.021,105.1300,24
38068090450992,10:34:28.090,105.1300,2
38090103492321,10:34:50.103,105.1700,100
38128033268160,10:35:28.033,105.1700,3
38128033566749,10:35:28.033,105.2000,17
38185207195153,10:36:25.207,105.1900,40
38188008517515,10:36:28.008,105.1900,2
38203488438100,10:36:43.488,105.2200,5
38203488438100,10:36:43.488,105.2200,10
38203488438100,10:36:43.488,105.2200,100
38234325833346,10:37:14.325,105.2000,100
38234326055837,10:37:14.326,105.2000,100
38234383630491,10:37:14.383,105.1700,20
38234383630491,10:37:14.383,105.1600,10
38244571338195,10:37:24.571,105.1800,100
38255186361459,10:37:35.186,105.1500,100
38256005872456,10:37:36.005,105.1200,48
38256005875697,10:37:36.005,105.1200,52
38256005911243,10:37:36.005,105.1200,14
38267863393348,10:37:47.863,105.1000,100
38267863416862,10:37:47.863,105.1000,100
38296014714574,10:38:16.014,105.1300,2
38296014714574,10:38:16.014,105.1300,6
38368011278130,10:39:28.011,105.1500,3
38381182692862,10:39:41.182,105.1400,100
38428020744326,10:40:28.020,105.1600,3
38434259225048,10:40:34.259,105.1900,100
38434259225048,10:40:34.259,105.1900,6
38463429438699,10:41:03.429,105.1600,78
38463429471510,10:41:03.429,105.1600,22
38463429689832,10:41:03.429,105.1600,78
38470263558572,10:41:10.263,105.1200,100
38470263558572,10:41:10.263,105.1200,100
38470263608688,10:41:10.263,105.1100,59
38488010289125,10:41:28.010,105.1300,2
38523104179602,10:42:03.104,105.0900,100
38523104179602,10:42:03.104,105.0900,87
38523104179602,10:42:03.104,105.0900,13
38523106457104,10:42:03.106,105.0900,100
38548036385848,10:42:28.036,105.0700,3
38573833165232,10:42:53.833,105.0500,100
38573833191502,10:42:53.833,105.0500,87
38592545354064,10:43:12.545,105.0700,9
38592545354064,10:43:12.545,105.0700,6
38611793882879,10:43:31.793,105.0800,100
38646660826218,10:44:06.660,105.1200,100
38646660826218,10:44:06.660,105.1200,100
38646660866234,10:44:06.660,105.1200,5
38665514198183,10:44:25.514,105.1300,100
38676489952780,10:44:36.489,105.1600,23
38676489965804,10:44:36.489,105.1600,40
38676489967120,10:44:36.489,105.1600,37
38682403523931,10:44:42.403,105.1700,100
38682403523931,10:44:42.403,105.1700,100
38682403523931,10:44:42.403,105.1700,24
38682403550695,10:44:42.403,105.1700,14
38682490093188,10:44:42.490,105.1800,9
38683096529257,10:44:43.096,105.1800,91
38683096529257,10:44:43.096,105.1900,9
38683096571997,10:44:43.096,105.1900,91
38683096683891,10:44:43.096,105.2000,100
38683096756663,10:44:43.096,105.2000,100
38683097133741,10:44:43.097,105.2000,100
38683489022410,10:44:43.489,105.2100,70
38683898625409,10:44:43.898,105.2100,30
38684190001218,10:44:44.190,105.2300,100
38684488226408,10:44:44.488,105.2400,100
38691257273619,10:44:51.257,105.1900,100
38691278281133,10:44:51.278,105.1800,16
38691278603445,10:44:51.278,105.1700,16
38702709501781,10:45:02.709,105.1500,100
38702969249649,10:45:02.969,105.1200,16
38717996168603,10:45:17.996,105.0700,94
38724754229447,10:45:24.754,105.0700,6
38728018177175,10:45:28.018,105.1000,2
38752167912981,10:45:52.167,105.0500,28
38788009483328,10:46:28.009,105.0900,2
38797070035472,10:46:37.070,105.0500,100
38797070035472,10:46:37.070,105.0400,16
38797070035472,10:46:37.070,105.0300,16
38797070035472,10:46:37.070,105.0300,300
38799225228142,10:46:39.225,104.9800,10
38806062024268,10:46:46.062,104.9800,90
38806062024268,10:46:46.062,104.9700,100
38806062024268,10:46:46.062,104.9700,100
38806062024268,10:46:46.062,104.9600,16
38806062024268,10:46:46.062,104.9500,16
38806062396958,10:46:46.062,104.9700,165
38806062405058,10:46:46.062,104.9700,35
38822311901054,10:47:02.311,104.9300,100
38822311984851,10:47:02.311,104.9300,100
38822312602008,10:47:02.312,104.9300,200
38822313232358,10:47:02.313,104.9300,16
38848037890678,10:47:28.037,104.8900,2
38848037890678,10:47:28.037,104.8900,100
38908007423573,10:48:28.007,104.8500,3
38968012252499,10:49:28.012,104.8600,2
38985795496290,10:49:45.795,104.8900,100
38985795496290,10:49:45.795,104.8900,100
38985795926421,10:49:45.795,104.9000,10
38985795936322,10:49:45.795,104.9200,24
38985795952504,10:49:45.795,104.9200,24
38985796106303,10:49:45.796,104.9200,76
38992257522065,10:49:52.257,104.9100,15
39000253535580,10:50:00.253,104.8500,100
39000253569114,10:50:00.253,104.8500,53
39000253627777,10:50:00.253,104.8400,100
39035723163126,10:50:35.723,104.7800,4
39035723204646,10:50:35.723,104.7800,23
39035723204646,10:50:35.723,104.7800,16
39035723226097,10:50:35.723,104.7700,16
39035723235663,10:50:35.723,104.7500,29
39035723238150,10:50:35.723,104.7500,67
39035723247436,10:50:35.723,104.7500,49
39035723357198,10:50:35.723,104.7500,155
39036381930276,10:50:36.381,104.7400,100
39038016193844,10:50:38.016,104.6900,2
39044868596104,10:50:44.868,104.6500,100
39044868596104,10:50:44.868,104.6500,16
39044878789191,10:50:44.878,104.6200,100
39044878789191,10:50:44.878,104.6200,100
39044878789191,10:50:44.878,104.6200,100
39044878789191,10:50:44.878,104.6200,100
39044910641940,10:50:44.910,104.6100,16
39045271329579,10:50:45.271,104.6100,100
39045271935425,10:50:45.271,104.6100,100
39045281919183,10:50:45.281,104.6100,76
39045281944063,10:50:45.281,104.6100,1
39045282346236,10:50:45.282,104.6100,23
39045456056868,10:50:45.456,104.6100,100
39045456056868,10:50:45.456,104.6100,100
39045456973644,10:50:45.456,104.6300,10
39045463237822,10:50:45.463,104.6100,100
39045463546812,10:50:45.463,104.6100,210
39045463997197,10:50:45.463,104.6100,3
39045817239260,10:50:45.817,104.6100,97
39045817239260,10:50:45.817,104.6100,100
39045916187318,10:50:45.916,104.5700,14
39049133997245,10:50:49.133,104.6100,100
39049133997245,10:50:49.133,104.6100,200
39049134069206,10:50:49.134,104.6100,100
39049134434994,10:50:49.134,104.6100,63
39049134492873,10:50:49.134,104.6100,37
39076960643856,10:51:16.960,104.6400,9
39076960653428,10:51:16.960,104.6400,31
39082753779609,10:51:22.753,104.6600,100
39082753779609,10:51:22.753,104.6600,3
39086917909516,10:51:26.917,104.6600,100
39125743048340,10:52:05.743,104.7400,100
39125743048340,10:52:05.743,104.7400,100
39126154352706,10:52:06.154,104.7400,1
39141413360794,10:52:21.413,104.7700,6
39141414825909,10:52:21.414,104.7750,9
39141414917032,10:52:21.414,104.7750,2
39141513790867,10:52:21.513,104.7750,18
39148150230553,10:52:28.150,104.7800,2
39165254077713,10:52:45.254,104.7600,100
39187995796592,10:53:07.995,104.7100,100
39187995796592,10:53:07.995,104.7000,66
39187995806982,10:53:07.995,104.7000,34
39187995806982,10:53:07.995,104.6900,15
39187995813370,10:53:07.995,104.6900,17
39187995815012,10:53:07.995,104.6900,67
39187995906488,10:53:07.995,104.6900,1
39204054041657,10:53:24.054,104.7100,100
39244187046864,10:54:04.187,104.7200,3
39244187046864,10:54:04.187,104.7200,97
39244187097124,10:54:04.187,104.7200,3
39244187420868,10:54:04.187,104.7300,97
39244187470336,10:54:04.187,104.7300,3
39244187470336,10:54:04.187,104.7300,97
39244187478668,10:54:04.187,104.7300,3
39244188064372,10:54:04.188,104.7500,3
39245744267347,10:54:05.744,104.7500,97
39260811943639,10:54:20.811,104.8100,100
39285891563101,10:54:45.891,104.8300,100
39290910672173,10:54:50.910,104.8400,99
39290910730102,10:54:50.910,104.8400,1
39296927247761,10:54:56.927,104.8400,100
39300939495429,10:55:00.939,104.8400,22
39304871920060,10:55:04.871,104.8400,78
39304873346497,10:55:04.873,104.8700,22
39306780531396,10:55:06.780,104.8700,75
39306808356361,10:55:06.808,104.8700,3
39311794998294,10:55:11.794,104.9000,10
39321826312611,10:55:21.826,104.9300,7
39321826312611,10:55:21.826,104.9300,92
39331784122730,10:55:31.784,104.9600,24
39331789727197,10:55:31.789,104.9600,75
39331839573938,10:55:31.839,104.9600,1
39331839573938,10:55:31.839,104.9600,1
39352845931381,10:55:52.845,104.9800,100
39352845931381,10:55:52.845,104.9800,91
39352845993566,10:55:52.845,104.9800,9
39372262333783,10:56:12.262,104.9800,49
39377279008693,10:56:17.279,104.9800,2
39380146288790,10:56:20.146,104.9900,2
39385159617600,10:56:25.159,105.0100,25
39385834950952,10:56:25.834,105.0100,35
39411679362264,10:56:51.679,105.0100,5
39411679480326,10:56:51.679,104.9700,10
39411680187596,10:56:51.680,104.9500,100
39411775907399,10:56:51.775,104.9400,100
39448029471136,10:57:28.029,104.8900,10
39448029471136,10:57:28.029,104.8900,20
39449014384976,10:57:29.014,104.8700,2
39449014427060,10:57:29.014,104.8700,2
39467248723633,10:57:47.248,104.8100,6
39467249321268,10:57:47.249,104.8000,2
39467249346922,10:57:47.249,104.8000,40
39467249346922,10:57:47.249,104.8000,300
39489497453145,10:58:09.497,104.8400,76
39489497482963,10:58:09.497,104.8400,24
39489497482963,10:58:09.497,104.8400,8
39489497482963,10:58:09.497,104.8400,3
39535255563023,10:58:55.255,104.8700,2
39535255587655,10:58:55.255,104.8700,98
39552067910341,10:59:12.067,104.9000,100
39552068305984,10:59:12.068,104.9100,14
39600108775321,11:00:00.108,104.9200,100
39600108822310,11:00:00.108,104.9400,61
39600108834392,11:00:00.108,104.9400,39
39600108834392,11:00:00.108,104.9400,11
39601129959400,11:00:01.129,104.9600,100
39601307699804,11:00:01.307,104.9700,78
39605810448951,11:00:05.810,105.0100,3
39608555822087,11:00:08.555,104.9900,78
39608555945272,11:00:08.555,104.9900,22
39612453084660,11:00:12.453,104.9900,34
39612453424709,11:00:12.453,104.9900,66
39612453547716,11:00:12.453,104.9900,34
39614772445271,11:00:14.772,104.9900,19
39615058148691,11:00:15.058,105.0100,100
39626412766555,11:00:26.412,105.0200,100
39626412766555,11:00:26.412,105.0300,100
39626413362336,11:00:26.413,104.9900,100
39626413895250,11:00:26.413,105.0000,10
39626435469948,11:00:26.435,105.0000,100
39662911899350,11:01:02.911,105.0300,40
39662912901143,11:01:02.912,105.0400,100
39662914002078,11:01:02.914,105.0400,15
39662914855005,11:01:02.914,105.0500,15
39663500613666,11:01:03.500,105.1700,1
39680734417834,11:01:20.734,105.0500,7
39680734417834,11:01:20.734,105.0500,10
39680734417834,11:01:20.734,105.0500,63
39680995344299,11:01:20.995,105.1000,100
39680995344299,11:01:20.995,105.1000,2
39680995344299,11:01:20.995,105.1100,98
39684289106665,11:01:24.289,105.1100,2
39684289106665,11:01:24.289,105.1100,98
39684289135625,11:01:24.289,105.1100,2
39684289135625,11:01:24.289,105.1100,100
39690996346246,11:01:30.996,105.1900,100
39723255734144,11:02:03.255,105.2000,100
39723255734144,11:02:03.255,105.2000,100
39723255734144,11:02:03.255,105.2000,100
39723255734144,11:02:03.255,105.2000,5
39723270256668,11:02:03.270,105.2200,78
39723270280174,11:02:03.270,105.2200,22
39727383063919,11:02:07.383,105.2250,32
39728516774030,11:02:08.516,105.2250,69
39730733945054,11:02:10.733,105.2450,125
39733578874427,11:02:13.578,105.2200,100
39733579060731,11:02:13.579,105.2200,100
39771821919487,11:02:51.821,105.2400,54
39790942300529,11:03:10.942,105.2200,100
39790942837896,11:03:10.942,105.2300,10
39790942854474,11:03:10.942,105.2300,10
39797936201262,11:03:17.936,105.1950,100
39803041784086,11:03:23.041,105.1950,5
39808796105164,11:03:28.796,105.2000,3
39808796105164,11:03:28.796,105.2000,75
39808796142668,11:03:28.796,105.2000,25
39845024551177,11:04:05.024,105.2600,37
39845024574436,11:04:05.024,105.2600,63
39845024574436,11:04:05.024,105.2600,5
39845024831921,11:04:05.024,105.2800,100
39845128966743,11:04:05.128,105.3000,100
39937677105790,11:05:37.677,105.2500,2
39988014209458,11:06:28.014,105.2600,2
40030721568561,11:07:10.721,105.3000,100
40030721568561,11:07:10.721,105.3000,100
40030721568561,11:07:10.721,105.3000,100
40056304634801,11:07:36.304,105.3000,6
40108007023482,11:08:28.007,105.2600,2
40111169092190,11:08:31.169,105.2900,9
40134278395852,11:08:54.278,105.2700,100
40134278494613,11:08:54.278,105.2800,10
40134279059465,11:08:54.279,105.2700,59
40134279059465,11:08:54.279,105.2700,10
40140004426457,11:09:00.004,105.2600,1
40140011485402,11:09:00.011,105.2600,100
40154119434166,11:09:14.119,105.2700,5
40154119434166,11:09:14.119,105.2700,95
40154119493964,11:09:14.119,105.2700,5
40154119493964,11:09:14.119,105.2700,95
40154119509706,11:09:14.119,105.2700,5
40154119509706,11:09:14.119,105.2700,40
40154704892649,11:09:14.704,105.2800,100
40155169564966,11:09:15.169,105.2900,100
40155169943409,11:09:15.169,105.3000,100
40155395865928,11:09:15.395,105.3200,3
40162533182217,11:09:22.533,105.3300,48
40162533238091,11:09:22.533,105.3300,52
40181623565093,11:09:41.623,105.3000,100
40231298185076,11:10:31.298,105.2500,4
40231298212744,11:10:31.298,105.2400,42
40232114757690,11:10:32.114,105.2400,100
40232114815926,11:10:32.114,105.2300,100
40235506508355,11:10:35.506,105.2200,2
40238943703772,11:10:38.943,105.1800,100
40288025252757,11:11:28.025,105.1600,3
40320246991798,11:12:00.246,105.1800,100
40320507197591,11:12:00.507,105.2000,100
40320507197591,11:12:00.507,105.2000,100
40351693945908,11:12:31.693,105.2500,5
40353056636689,11:12:33.056,105.2000,90
40353056636689,11:12:33.056,105.1900,10
40388343900489,11:13:08.343,105.1900,90
40388343900489,11:13:08.343,105.1900,100
40388343900489,11:13:08.343,105.1900,100
40408014624267,11:13:28.014,105.1700,2
40423261593264,11:13:43.261,105.1900,40
40423267967285,11:13:43.267,105.1900,2
40449469807355,11:14:09.469,105.1900,97
40468008930413,11:14:28.008,105.1500,3
40481460619891,11:14:41.460,105.1800,5
40500735571327,11:15:00.735,105.2000,5
40501182670663,11:15:01.182,105.2000,36
40501183106974,11:15:01.183,105.2000,59
40523897123173,11:15:23.897,105.2200,29
40527083169442,11:15:27.083,105.1900,100
40527083533408,11:15:27.083,105.2100,2
40527083537246,11:15:27.083,105.2100,8
40531271805064,11:15:31.271,105.1900,2
40531271805064,11:15:31.271,105.1900,8
40531271805064,11:15:31.271,105.1900,1
40531271805064,11:15:31.271,105.1900,1
40531271805064,11:15:31.271,105.1900,10
40531271805064,11:15:31.271,105.1900,1
40564062581594,11:16:04.062,105.2100,2
40564062581594,11:16:04.062,105.2100,4
40598291749659,11:16:38.291,105.2300,7
40598291749659,11:16:38.291,105.2300,93
40612887962574,11:16:52.887,105.2300,100
40613856280882,11:16:53.856,105.2000,2
40617559721210,11:16:57.559,105.2000,2
40637151041694,11:17:17.151,105.2200,100
40707555923258,11:18:27.555,105.2500,100
40707556104175,11:18:27.556,105.2500,3
40707556104175,11:18:27.556,105.2500,5
40707556104175,11:18:27.556,105.2500,100
40746723828588,11:19:06.723,105.2500,2
40749976940629,11:19:09.976,105.2800,47
40757858605605,11:19:17.858,105.2600,40
40757858774318,11:19:17.858,105.2300,10
40758432582082,11:19:18.432,105.2000,100
40769459041395,11:19:29.459,105.1600,100
40829012366152,11:20:29.012,105.1200,2
40829012390053,11:20:29.012,105.1200,20
40880798900556,11:21:20.798,105.0600,100
40890008821022,11:21:30.008,105.0400,2
40890008846356,11:21:30.008,105.0400,100
40891430543413,11:21:31.430,105.0500,100
40891430576416,11:21:31.430,105.0500,57
40891430576416,11:21:31.430,105.0500,4
40924829097330,11:22:04.829,105.0200,57
40924829097330,11:22:04.829,105.0000,43
40924829422715,11:22:04.829,105.0000,57
40948022226086,11:22:28.022,104.9400,2
40979948843520,11:22:59.948,104.9800,100
40979948843520,11:22:59.948,104.9800,65
40979948843520,11:22:59.948,104.9800,16
40979948870539,11:22:59.948,104.9800,55
40979948879994,11:22:59.948,104.9800,29
40979948879994,11:22:59.948,104.9800,3
40979950152984,11:22:59.950,104.9800,100
40979950193080,11:22:59.950,104.9800,39
40979994052006,11:22:59.994,105.0000,100
40979994082052,11:22:59.994,105.0100,6
40979994128752,11:22:59.994,105.0100,94
41008122962948,11:23:28.122,105.0300,2
41029242896733,11:23:49.242,105.0300,100
41048011134044,11:24:08.011,105.0300,100
41063001797016,11:24:23.001,105.0100,100
41063001813310,11:24:23.001,105.0100,16
41068033478761,11:24:28.033,105.0300,2
41070791053627,11:24:30.791,105.0000,78
41074172675002,11:24:34.172,105.0100,100
41075024298503,11:24:35.024,105.0200,50
41075024324097,11:24:35.024,105.0200,7
41075240609761,11:24:35.240,105.0000,16
41075240609761,11:24:35.240,104.9900,109
41080753703291,11:24:40.753,104.9900,22
41081461629551,11:24:41.461,104.9800,1
41090169378087,11:24:50.169,104.9700,99
41101312840026,11:25:01.312,105.0200,100
41111983796904,11:25:11.983,104.9700,36
41125716920074,11:25:25.716,104.9200,73
41148950286218,11:25:48.950,104.9100,100
41153082911731,11:25:53.082,104.9300,2
41190052794304,11:26:30.052,104.8700,2
41248066623781,11:27:28.066,104.8500,2
41275578727426,11:27:55.578,104.8300,100
41275579323666,11:27:55.579,104.8200,4
41275579351237,11:27:55.579,104.8200,17
41286517452245,11:28:06.517,104.8600,100
41286517480608,11:28:06.517,104.8600,100
41286548019428,11:28:06.548,104.8400,18
41286548092623,11:28:06.548,104.8400,18
41301829366352,11:28:21.829,104.8400,100
41315996125942,11:28:35.996,104.8500,100
41315996159724,11:28:35.996,104.8500,3
41324940210086,11:28:44.940,104.8500,97
41330665623621,11:28:50.665,104.8100,18
41368013645599,11:29:28.013,104.8400,3
41368013645599,11:29:28.013,104.8600,6
41368013645599,11:29:28.013,104.8600,39
41368013646786,11:29:28.013,104.8600,50
41368013742653,11:29:28.013,104.8600,111
41368016664166,11:29:28.016,104.8600,100
41369107386452,11:29:29.107,104.8700,100
41445932293575,11:30:45.932,104.8200,1
41445932312044,11:30:45.932,104.8200,2
41445932321387,11:30:45.932,104.8200,1
41445932332111,11:30:45.932,104.8200,68
41445932369154,11:30:45.932,104.8200,1
41445933317868,11:30:45.933,104.8200,28
41445933317868,11:30:45.933,104.8100,72
41445962429954,11:30:45.962,104.8100,10
41447117312810,11:30:47.117,104.8100,2
41447117312810,11:30:47.117,104.8200,98
41447117374947,11:30:47.117,104.8200,2
41448001856887,11:30:48.001,104.8400,50
41448001882108,11:30:48.001,104.8400,2
41448001922801,11:30:48.001,104.8400,48
41448001922801,11:30:48.001,104.8400,6
41448001922801,11:30:48.001,104.8400,100
41452795340801,11:30:52.795,104.8400,6
41499522551490,11:31:39.522,104.8300,2
41547193243395,11:32:27.193,104.7900,2
41547193243395,11:32:27.193,104.7900,98
41547193248440,11:32:27.193,104.7900,2
41547193390100,11:32:27.193,104.7900,56
41547193611081,11:32:27.193,104.7900,44
41547193683617,11:32:27.193,104.8100,10
41547193963355,11:32:27.193,104.7900,10
41561460818724,11:32:41.460,104.7600,100
41561484803990,11:32:41.484,104.7800,10
41562009122062,11:32:42.009,104.7800,2
41589900501361,11:33:09.900,104.8000,4
41589900535867,11:33:09.900,104.8000,196
41589900535867,11:33:09.900,104.8000,100
41591736033879,11:33:11.736,104.8300,100
41615174794103,11:33:35.174,104.8500,100
41668009540893,11:34:28.009,104.8900,100
41668009540893,11:34:28.009,104.8900,100
41668010850260,11:34:28.010,104.8700,2
41683658077675,11:34:43.658,104.9200,7
41695067646919,11:34:55.067,104.9200,93
41695069164355,11:34:55.069,104.9300,30
41695071814150,11:34:55.071,104.9400,100
41733256545507,11:35:33.256,104.9600,3
41753146258573,11:35:53.146,104.9900,100
41753146258573,11:35:53.146,104.9900,45
41787910236434,11:36:27.910,104.9700,100
41787910236434,11:36:27.910,104.9700,20
41789081750939,11:36:29.081,104.9700,2
41801460075438,11:36:41.460,104.9200,100
41802566141862,11:36:42.566,104.9000,100
41802577541306,11:36:42.577,104.8900,100
41802577541306,11:36:42.577,104.8900,100
41802586420180,11:36:42.586,104.8700,100
41802590008563,11:36:42.590,104.8500,8
41802590037810,11:36:42.590,104.8500,11
41803461709632,11:36:43.461,104.8500,100
41803746378747,11:36:43.746,104.8600,79
41807895462606,11:36:47.895,104.8900,100
41850149315057,11:37:30.149,104.8900,3
41854246265415,11:37:34.246,104.8700,100
41909480383347,11:38:29.480,104.8300,2
41910280637290,11:38:30.280,104.8000,1
41948589066333,11:39:08.589,104.8000,1
41948589066333,11:39:08.589,104.8000,200
42005214995588,11:40:05.214,104.7600,100
42005214995588,11:40:05.214,104.7500,100
42005214995588,11:40:05.214,104.7500,71
42005214995588,11:40:05.214,104.7500,100
42005214995588,11:40:05.214,104.7500,2
42005214995588,11:40:05.214,104.7400,7
42005214995588,11:40:05.214,104.7400,200
42005214995588,11:40:05.214,104.7400,100
42005214995588,11:40:05.214,104.7300,20
42005215193315,11:40:05.215,104.7500,38
42005215657846,11:40:05.215,104.7200,19
42018054939161,11:40:18.054,104.7000,200
42028265705902,11:40:28.265,104.7200,2
42045239973436,11:40:45.239,104.6700,100
42047705278230,11:40:47.705,104.7000,100
42047705278230,11:40:47.705,104.7000,100
42060495682075,11:41:00.495,104.7200,72
42060496491724,11:41:00.496,104.7200,28
42061173028280,11:41:01.173,104.7300,6
42061173028280,11:41:01.173,104.7300,94
42061173073577,11:41:01.173,104.7300,6
42115317810277,11:41:55.317,104.7700,100
42119783090565,11:41:59.783,104.7900,100
42123055827877,11:42:03.055,104.8000,100
42125948362470,11:42:05.948,104.8100,100
42131248447820,11:42:11.248,104.8300,33
42131248448665,11:42:11.248,104.8300,50
42131248617059,11:42:11.248,104.8300,17
42132465475354,11:42:12.465,104.8600,20
42141505964922,11:42:21.505,104.8300,100
42141548817025,11:42:21.548,104.8500,58
42147884535947,11:42:27.884,104.8200,100
42168958993847,11:42:48.958,104.8300,100
42168959024179,11:42:48.959,104.8300,30
42196864489762,11:43:16.864,104.8600,80
42196864489762,11:43:16.864,104.8600,20
42196864517345,11:43:16.864,104.8600,51
42196864532137,11:43:16.864,104.8600,29
42208035551255,11:43:28.035,104.8600,2
42232078631785,11:43:52.078,104.8600,50
42234871819312,11:43:54.871,104.8600,50
42240764143415,11:44:00.764,104.8400,59
42240764143415,11:44:00.764,104.8400,41
42240786058358,11:44:00.786,104.8500,18
42245024746955,11:44:05.024,104.8600,2
42245024746955,11:44:05.024,104.8600,48
42247058646236,11:44:07.058,104.8600,52
42270225109600,11:44:30.225,104.8900,100
42270225109600,11:44:30.225,104.8900,100
42301186676178,11:45:01.186,104.9100,1
42301186847901,11:45:01.186,104.9100,1
42301187007747,11:45:01.187,104.9100,1
42301187262406,11:45:01.187,104.9100,1
42301187484796,11:45:01.187,104.9100,1
42301187609540,11:45:01.187,104.9100,1
42316085779790,11:45:16.085,104.9100,94
42357951109194,11:45:57.951,104.8900,100
42357951109194,11:45:57.951,104.8900,2
42357951557195,11:45:57.951,104.8800,50
42391027725000,11:46:31.027,104.8700,100
42391027725000,11:46:31.027,104.8700,1
42408405234483,11:46:48.405,104.8500,2
42415208882697,11:46:55.208,104.8700,38
42415208928547,11:46:55.208,104.8700,53
42415945507614,11:46:55.945,104.8900,50
42415945562140,11:46:55.945,104.8900,50
42448131409443,11:47:28.131,104.9100,3
42466549893159,11:47:46.549,104.8900,90
42466549893159,11:47:46.549,104.8800,10
42466549927560,11:47:46.549,104.8800,90
42466549927560,11:47:46.549,104.8800,10
42466549942450,11:47:46.549,104.8800,90
42466549942450,11:47:46.549,104.8800,10
42466549944086,11:47:46.549,104.8800,90
42466549944086,11:47:46.549,104.8800,100
42466549944086,11:47:46.549,104.8800,100
42466572448557,11:47:46.572,104.8700,100
42466572498461,11:47:46.572,104.8700,100
42475176500089,11:47:55.176,104.8700,100
42508011299535,11:48:28.011,104.9100,2
42510223129013,11:48:30.223,104.9100,100
42524775497645,11:48:44.775,104.9200,100
42531276937016,11:48:51.276,104.9300,9
42531290238604,11:48:51.290,104.9000,100
42532307893951,11:48:52.307,104.9100,100
42540024790116,11:49:00.024,104.9100,9
42540024790116,11:49:00.024,104.9200,41
42545997406208,11:49:05.997,104.9200,59
42545997406208,11:49:05.997,104.9200,41
42554401033290,11:49:14.401,104.8900,2
42554401047143,11:49:14.401,104.8900,2
42554401065044,11:49:14.401,104.8900,98
42555522430103,11:49:15.522,104.9200,100
42567239319763,11:49:27.239,104.9300,100
42567239319763,11:49:27.239,104.9300,100
42570262140263,11:49:30.262,104.9300,100
42605987570548,11:50:05.987,104.9600,70
42616829088544,11:50:16.829,104.9100,100
42655643607647,11:50:55.643,104.9000,100
42655644050868,11:50:55.644,104.8900,70
42655644916595,11:50:55.644,104.8900,30
42655644916595,11:50:55.644,104.8900,2
42697923457695,11:51:37.923,104.8500,100
42698069939896,11:51:38.069,104.8200,100
42698070583710,11:51:38.070,104.8200,30
42698070583710,11:51:38.070,104.8300,70
42698070633527,11:51:38.070,104.8200,10
42698070832130,11:51:38.070,104.8200,38
42698070856080,11:51:38.070,104.8200,62
42698111166636,11:51:38.111,104.8200,30
42698112297966,11:51:38.112,104.8100,70
42708458273956,11:51:48.458,104.8100,30
42708458273956,11:51:48.458,104.8100,70
42708458305163,11:51:48.458,104.8100,30
42715294535167,11:51:55.294,104.8100,2
42715302630996,11:51:55.302,104.8200,29
42715302655543,11:51:55.302,104.8200,23
42715303552400,11:51:55.303,104.8200,48
42794108429384,11:53:14.108,104.8300,100
42794108458702,11:53:14.108,104.8300,75
42794108458702,11:53:14.108,104.8300,100
42794109047118,11:53:14.109,104.8400,100
42794110975603,11:53:14.110,104.8500,100
42812448863748,11:53:32.448,104.8700,100
42815055994339,11:53:35.055,104.9000,100
42850021691667,11:54:10.021,104.9000,100
42850067099370,11:54:10.067,104.9100,100
42884044463033,11:54:44.044,104.9000,100
42884044463033,11:54:44.044,104.8900,3
42884044490719,11:54:44.044,104.8900,100
42884044851148,11:54:44.044,104.9100,10
42884044935461,11:54:44.044,104.8900,10
42884046500865,11:54:44.046,104.8900,10
42902172260817,11:55:02.172,104.9300,100
42902172318964,11:55:02.172,104.9300,100
42912473042694,11:55:12.473,104.8900,3
42988031480965,11:56:28.031,104.9300,2
43021758626360,11:57:01.758,104.9400,10
43021758626360,11:57:01.758,104.9500,20
43021758662542,11:57:01.758,104.9500,10
43048013065752,11:57:28.013,104.9400,1
43048058619163,11:57:28.058,104.9500,77
43076069086001,11:57:56.069,104.9200,3
43076069086001,11:57:56.069,104.9200,100
43076069742491,11:57:56.069,104.8900,8
43088935142735,11:58:08.935,104.8900,89
43088935142735,11:58:08.935,104.8900,103
43088935142735,11:58:08.935,104.8900,2
43088939295256,11:58:08.939,104.8800,100
43108032149166,11:58:28.032,104.8900,3
43119813649611,11:58:39.813,104.9100,7
43136837668774,11:58:56.837,104.9200,100
43136837695039,11:58:56.837,104.9200,6
43136837741660,11:58:56.837,104.9200,46
43141694280395,11:59:01.694,104.9300,7
43141705496913,11:59:01.705,104.9300,100
43168021147156,11:59:28.021,104.9000,2
43168033979298,11:59:28.033,104.9100,44
43228009109935,12:00:28.009,104.9100,3
43246766164464,12:00:46.766,104.9300,100
43246766794986,12:00:46.766,104.9400,100
43247683447733,12:00:47.683,104.9600,100
43247683506857,12:00:47.683,104.9600,100
43247683506857,12:00:47.683,104.9600,100
43247683506857,12:00:47.683,104.9600,100
43247685565763,12:00:47.685,104.9600,100
43247685565763,12:00:47.685,104.9700,100
43248967353188,12:00:48.967,104.9400,2
43283172935092,12:01:23.172,104.9300,100
43283172935092,12:01:23.172,104.9100,33
43283173457514,12:01:23.173,104.9100,67
43283173457514,12:01:23.173,104.9100,100
43283461839540,12:01:23.461,104.9000,93
43283461877457,12:01:23.461,104.9000,7
43283932048997,12:01:23.932,104.9000,100
43288041153647,12:01:28.041,104.9100,2
43311881888192,12:01:51.881,104.8700,100
43311881912926,12:01:51.881,104.8700,100
43311882267508,12:01:51.882,104.8600,100
43329460512236,12:02:09.460,104.8400,100
43339743117880,12:02:19.743,104.8800,100
43339743161171,12:02:19.743,104.9100,16
43339743162750,12:02:19.743,104.9100,6
43339793529068,12:02:19.793,104.9100,1
43356745140200,12:02:36.745,104.9300,100
43356775541167,12:02:36.775,104.9400,30
43356822213256,12:02:36.822,104.9500,45
43380087778220,12:03:00.087,104.9400,100
43385190644197,12:03:05.190,104.9600,50
43387341070396,12:03:07.341,104.9600,50
43387341070396,12:03:07.341,104.9700,50
43387341145847,12:03:07.341,104.9700,50
43387341508740,12:03:07.341,104.9700,50
43387632669666,12:03:07.632,104.9750,52
43468011004817,12:04:28.011,104.9400,2
43495414588454,12:04:55.414,104.9300,100
43495414588454,12:04:55.414,104.9200,3
43495414588454,12:04:55.414,104.9200,100
43495414588454,12:04:55.414,104.9200,100
43495414976647,12:04:55.414,104.9400,10
43495415082084,12:04:55.415,104.9200,10
43495415120040,12:04:55.415,104.9200,10
43495415356418,12:04:55.415,104.9100,100
43495415401250,12:04:55.415,104.8700,100
43495415401250,12:04:55.415,104.8600,100
43495415401250,12:04:55.415,104.8500,19
43495415401250,12:04:55.415,104.8400,20
43495415401250,12:04:55.415,104.8200,20
43495415401250,12:04:55.415,104.8100,100
43495415401250,12:04:55.415,104.8100,50
43495415401250,12:04:55.415,104.7800,43
43495415401250,12:04:55.415,104.7800,50
43495415401250,12:04:55.415,104.7800,100
43495415401250,12:04:55.415,104.7700,20
43495415401250,12:04:55.415,104.7600,20
43495415401250,12:04:55.415,104.7500,58
43495415453172,12:04:55.415,104.8800,100
43495415470068,12:04:55.415,104.8900,10
43495415541385,12:04:55.415,104.8700,25
43495415957311,12:04:55.415,104.8600,100
43495415959804,12:04:55.415,104.8700,3
43495415976366,12:04:55.415,104.8700,72
43495415976366,12:04:55.415,104.8700,28
43495416031512,12:04:55.416,104.8700,72
43495416031512,12:04:55.416,104.8700,100
43495416599575,12:04:55.416,104.8600,100
43495479353154,12:04:55.479,104.8100,100
43495566014718,12:04:55.566,104.7900,100
43496062358349,12:04:56.062,104.8100,100
43496461264219,12:04:56.461,104.7800,100
43496461356240,12:04:56.461,104.8000,10
43497179686455,12:04:57.179,104.8200,100
43497179686455,12:04:57.179,104.8200,100
43497306727067,12:04:57.306,104.8400,100
43497363356773,12:04:57.363,104.8600,100
43497363356773,12:04:57.363,104.8600,100
43499647678735,12:04:59.647,104.8300,10
43499647678735,12:04:59.647,104.8300,390
43499763603610,12:04:59.763,104.8650,100
43528006497515,12:05:28.006,104.8700,2
43555435875814,12:05:55.435,104.8750,100
43565020853990,12:06:05.020,104.8700,70
43581701944781,12:06:21.701,104.8500,137
43581701982051,12:06:21.701,104.8500,100
43581702020536,12:06:21.702,104.8500,673
43581702020536,12:06:21.702,104.8500,4
43581702020536,12:06:21.702,104.8500,100
43582256007039,12:06:22.256,104.8300,100
43588008522018,12:06:28.008,104.8250,5
43588239993719,12:06:28.239,104.8100,198
43588241725271,12:06:28.241,104.8300,2
43602061821881,12:06:42.061,104.7900,100
43616780321900,12:06:56.780,104.7900,100
43664480921245,12:07:44.480,104.7900,3
43691635988804,12:08:11.635,104.8100,96
43691635988804,12:08:11.635,104.8100,4
43691636003991,12:08:11.636,104.8100,58
43691636003991,12:08:11.636,104.8100,100
43692026229348,12:08:12.026,104.8100,100
43692026229348,12:08:12.026,104.8100,100
43692026322392,12:08:12.026,104.8200,100
43692026322392,12:08:12.026,104.8200,5
43695019174929,12:08:15.019,104.8300,50
43695034508230,12:08:15.034,104.8300,50
43695036540615,12:08:15.036,104.8300,50
43695036578067,12:08:15.036,104.8300,100
43709738708965,12:08:29.738,104.8400,100
43712911868655,12:08:32.911,104.8300,5
43714459025549,12:08:34.459,104.8100,100
43714508070937,12:08:34.508,104.8400,100
43714508070937,12:08:34.508,104.8500,100
43714508070937,12:08:34.508,104.8500,100
43714509609365,12:08:34.509,104.8600,100
43725102122555,12:08:45.102,104.8700,50
43725102696881,12:08:45.102,104.8700,2
43725363884573,12:08:45.363,104.8700,48
43735744647990,12:08:55.744,104.8800,100
43750413377752,12:09:10.413,104.8900,100
43774914633753,12:09:34.914,104.8600,100
43795134147383,12:09:55.134,104.8500,3
43828016184221,12:10:28.016,104.8700,2
43856330855351,12:10:56.330,104.8900,100
43857511397177,12:10:57.511,104.9000,100
43860183428104,12:11:00.183,104.9100,100
43860194997224,12:11:00.194,104.9100,78
43860195026831,12:11:00.195,104.9100,22
43921693855438,12:12:01.693,104.9300,2
43941415712447,12:12:21.415,104.9400,5
43945589646588,12:12:25.589,104.9200,11
43945589646588,12:12:25.589,104.9200,100
43950720044316,12:12:30.720,104.9200,2
43966462610300,12:12:46.462,104.9200,3
43981292807275,12:13:01.292,104.9400,4
43981386237437,12:13:01.386,104.9400,4
43982529850544,12:13:02.529,104.9400,29
43991319744381,12:13:11.319,104.9400,100
43991319744381,12:13:11.319,104.9400,100
43991319744381,12:13:11.319,104.9400,100
43991320008189,12:13:11.320,104.9400,58
44009714212764,12:13:29.714,104.9500,4
44009714212764,12:13:29.714,104.9500,100
44056210151254,12:14:16.210,104.9200,11
44058126953042,12:14:18.126,104.9200,89
44058126953042,12:14:18.126,104.9100,10
44058126953042,12:14:18.126,104.9100,100
44058126953042,12:14:18.126,104.9100,15
44058126974366,12:14:18.126,104.9100,85
44058126974366,12:14:18.126,104.9100,4
44058126974366,12:14:18.126,104.9100,11
44058127000592,12:14:18.127,104.9100,85
44058127008202,12:14:18.127,104.9100,4
44058127754695,12:14:18.127,104.8900,38
44060778161500,12:14:20.778,104.8900,100
44060792845071,12:14:20.792,104.8800,100
44063790855771,12:14:23.790,104.8800,100
44068361007959,12:14:28.361,104.8800,2
44098016456514,12:14:58.016,104.9100,33
44098017070700,12:14:58.017,104.9100,67
44098017070700,12:14:58.017,104.9100,6
44141032394591,12:15:41.032,104.9100,2
44153318300661,12:15:53.318,104.9200,10
44167419224826,12:16:07.419,104.8900,100
44173804523252,12:16:13.804,104.9200,100
44188939522268,12:16:28.939,104.9100,3
44191929563013,12:16:31.929,104.9200,90
44191929563013,12:16:31.929,104.9300,10
44209638302031,12:16:49.638,104.9400,100
44218637452789,12:16:58.637,104.9500,100
44232504821057,12:17:12.504,104.9400,26
44232504879562,12:17:12.504,104.9400,74
44232504879562,12:17:12.504,104.9400,3
44232505509623,12:17:12.505,104.9300,3
44308050460625,12:18:28.050,104.9500,2
44309179556479,12:18:29.179,104.9500,10
44309179556479,12:18:29.179,104.9500,1
44318109776840,12:18:38.109,104.9400,6
44327920531813,12:18:47.920,104.9100,52
44327920631600,12:18:47.920,104.9100,48
44327920631600,12:18:47.920,104.9100,3
44368015744598,12:19:28.015,104.9000,3
44428018881288,12:20:28.018,104.9000,2
44428029629399,12:20:28.029,104.9000,2
44455458299738,12:20:55.458,104.8800,88
44455458618705,12:20:55.458,104.8800,12
44455458618705,12:20:55.458,104.8800,4
44463443117788,12:21:03.443,104.8600,20
44463443117788,12:21:03.443,104.8500,100
44463853916691,12:21:03.853,104.8500,50
44463853955994,12:21:03.853,104.8500,50
44488058100920,12:21:28.058,104.8600,2
44503999132666,12:21:43.999,104.8500,100
44516456869095,12:21:56.456,104.9000,3
44548008892378,12:22:28.008,104.8800,2
44552239120211,12:22:32.239,104.8600,100
44588477320780,12:23:08.477,104.8400,47
44588477354108,12:23:08.477,104.8400,150
44588477354108,12:23:08.477,104.8400,35
44588477354108,12:23:08.477,104.8400,3
44588479516626,12:23:08.479,104.8300,14
44590124545559,12:23:10.124,104.8200,20
44592924090627,12:23:12.924,104.8000,20
44593263483864,12:23:13.263,104.8100,100
44597863961411,12:23:17.863,104.8300,100
44633697382867,12:23:53.697,104.8100,100
44644079726445,12:24:04.079,104.8300,2
44689095670141,12:24:49.095,104.7700,4
44692948511013,12:24:52.948,104.7700,100
44693459755358,12:24:53.459,104.7600,80
44703808192193,12:25:03.808,104.7900,2
44738021960905,12:25:38.021,104.7700,47
44748469008001,12:25:48.469,104.7400,20
44748469048208,12:25:48.469,104.7300,24
44748469212907,12:25:48.469,104.7300,12
44749951070112,12:25:49.951,104.7200,10
44789265478869,12:26:29.265,104.7100,20
44793967965332,12:26:33.967,104.7000,20
44793968290453,12:26:33.968,104.6900,20
44793968290453,12:26:33.968,104.6900,4
44808137530509,12:26:48.137,104.6950,1
44808137654701,12:26:48.137,104.6800,1
44834859553559,12:27:14.859,104.6700,64
44834859553559,12:27:14.859,104.6700,100
44848030381373,12:27:28.030,104.6700,2
44868722852412,12:27:48.722,104.7100,30
44875831363134,12:27:55.831,104.7200,100
44876444257506,12:27:56.444,104.7300,100
44876444257506,12:27:56.444,104.7300,35
44908007897975,12:28:28.007,104.7200,3
44944141774032,12:29:04.141,104.7600,100
44947290017803,12:29:07.290,104.7700,50
44966341914136,12:29:26.341,104.7800,100
44980413240794,12:29:40.413,104.7900,97
44980413293418,12:29:40.413,104.7900,3
44999650264104,12:29:59.650,104.7700,100
44999650499878,12:29:59.650,104.7700,57
44999650642047,12:29:59.650,104.7700,43
44999650642047,12:29:59.650,104.7700,100
44999650642047,12:29:59.650,104.7700,5
44999650643142,12:29:59.650,104.7700,20
44999669420742,12:29:59.669,104.7600,58
44999669458116,12:29:59.669,104.7600,42
45005936823043,12:30:05.936,104.7500,100
45005937224962,12:30:05.937,104.7500,100
45005937224962,12:30:05.937,104.7500,100
45005937224962,12:30:05.937,104.7500,4
45007109378611,12:30:07.109,104.7300,100
45007243565649,12:30:07.243,104.7300,78
45007243610943,12:30:07.243,104.7300,22
45008046022359,12:30:08.046,104.7550,100
45027652292642,12:30:27.652,104.7400,100
45028134602802,12:30:28.134,104.7500,3
45082536751879,12:31:22.536,104.8000,2
45082566874307,12:31:22.566,104.8100,100
45082648611152,12:31:22.648,104.8100,10
45122679973299,12:32:02.679,104.7600,12
45130432691327,12:32:10.432,104.7300,4
45131168923093,12:32:11.168,104.7200,20
45132925186714,12:32:12.925,104.7100,1
45137927953804,12:32:17.927,104.7000,20
45148046609149,12:32:28.046,104.7000,2
45209014070313,12:33:29.014,104.7000,2
45215714945213,12:33:35.714,104.6800,20
45215714945213,12:33:35.714,104.6800,100
45215714945213,12:33:35.714,104.6800,80
45215715136696,12:33:35.715,104.6800,20
45215715136696,12:33:35.715,104.6800,47
45215726559738,12:33:35.726,104.6700,20
45222926557901,12:33:42.926,104.6400,20
45222926557901,12:33:42.926,104.6400,80
45246821752108,12:34:06.821,104.6600,100
45246821881960,12:34:06.821,104.6600,100
45315207745832,12:35:15.207,104.6800,100
45315207745832,12:35:15.207,104.6800,30
45315207745832,12:35:15.207,104.6800,65
45315207745832,12:35:15.207,104.6800,100
45315411789546,12:35:15.411,104.7000,100
45335967323202,12:35:35.967,104.6700,3
45372122699147,12:36:12.122,104.6700,13
45372122699147,12:36:12.122,104.6700,4
45375550543978,12:36:15.550,104.6500,100
45375550574180,12:36:15.550,104.6500,100
45388009797419,12:36:28.009,104.6600,2
45407334897753,12:36:47.334,104.6300,10
45407335135751,12:36:47.335,104.6200,20
45407335135751,12:36:47.335,104.6200,83
45407335163319,12:36:47.335,104.6200,17
45411650817319,12:36:51.650,104.6400,76
45411651044578,12:36:51.651,104.6400,24
45417829872524,12:36:57.829,104.6800,100
45448009363631,12:37:28.009,104.6700,2
45459007042994,12:37:39.007,104.6750,100
45480681027400,12:38:00.681,104.7000,200
45534836597585,12:38:54.836,104.7300,100
45568158742022,12:39:28.158,104.7100,2
45602292542836,12:40:02.292,104.7300,100
45602292542836,12:40:02.292,104.7300,100
45610443726880,12:40:10.443,104.7500,100
45610443726880,12:40:10.443,104.7500,100
45610443726880,12:40:10.443,104.7500,1
45610443749490,12:40:10.443,104.7500,200
45650322560771,12:40:50.322,104.7400,3
45650323008936,12:40:50.323,104.7300,6
45659644044335,12:40:59.644,104.7300,30
45702156593889,12:41:42.156,104.7500,3
45708557227049,12:41:48.557,104.6800,53
45708557227049,12:41:48.557,104.6700,20
45708557227049,12:41:48.557,104.6700,30
45708557227049,12:41:48.557,104.6600,11
45708558246409,12:41:48.558,104.6600,5
45708562649341,12:41:48.562,104.6600,4
45708562649341,12:41:48.562,104.6500,1
45708562998576,12:41:48.562,104.6500,5
45725524710007,12:42:05.524,104.6400,48
45725524825955,12:42:05.524,104.6400,2
45735663946738,12:42:15.663,104.6300,20
45735663946738,12:42:15.663,104.6300,3
45735664196353,12:42:15.664,104.6200,10
45748011809188,12:42:28.011,104.6100,1
45748032332207,12:42:28.032,104.6100,1
45771908648585,12:42:51.908,104.6300,100
45810021239764,12:43:30.021,104.6600,2
45870951067439,12:44:30.951,104.6000,20
45870951067439,12:44:30.951,104.6000,3
45870951320742,12:44:30.951,104.5900,20
45873501701938,12:44:33.501,104.6200,2
45923844214530,12:45:23.844,104.6500,100
45923845486399,12:45:23.845,104.6500,22
45933001593410,12:45:33.001,104.6500,78
45933001593410,12:45:33.001,104.6600,22
45946181632699,12:45:46.181,104.6600,78
45988029466611,12:46:28.029,104.6500,2
45993690819814,12:46:33.690,104.6200,100
45993690819814,12:46:33.690,104.6200,3
46027095003079,12:47:07.095,104.5800,55
46044245117095,12:47:24.245,104.6200,100
46108022759441,12:48:28.022,104.6100,2
46168021779783,12:49:28.021,104.6000,2
46221573382594,12:50:21.573,104.6300,18
46221573738190,12:50:21.573,104.6300,77
46221573843488,12:50:21.573,104.6300,5
46221867552507,12:50:21.867,104.6600,100
46221867552507,12:50:21.867,104.6600,20
46233221100755,12:50:33.221,104.6200,4
46233221100755,12:50:33.221,104.6200,4
46255542082102,12:50:55.542,104.6800,100
46255542111713,12:50:55.542,104.6800,98
46294720896994,12:51:34.720,104.6600,50
46294721141043,12:51:34.721,104.6600,50
46346693272786,12:52:26.693,104.7000,3
46346693615892,12:52:26.693,104.7100,100
46346693615892,12:52:26.693,104.7100,100
46398790362507,12:53:18.790,104.6700,5
46398790362507,12:53:18.790,104.6600,95
46408009003496,12:53:28.009,104.6600,2
46421729811168,12:53:41.729,104.6600,3
46441573703949,12:54:01.573,104.6700,70
46448440289822,12:54:08.440,104.6200,20
46448440289822,12:54:08.440,104.6200,4
46453968011029,12:54:13.968,104.6100,10
46453968226123,12:54:13.968,104.6100,9
46453968237445,12:54:13.968,104.6100,1
46453969261196,12:54:13.969,104.5900,9
46468014417124,12:54:28.014,104.6000,2
46471325057636,12:54:31.325,104.5800,2
46475091821349,12:54:35.091,104.5700,100
46475091821349,12:54:35.091,104.5700,42
46475091821349,12:54:35.091,104.5700,20
46475092259022,12:54:35.092,104.5600,10
46475097704263,12:54:35.097,104.5500,20
46475097704263,12:54:35.097,104.5500,80
46480024493847,12:54:40.024,104.5700,100
46480024829887,12:54:40.024,104.5800,100
46523921585717,12:55:23.921,104.5400,10
46523921585717,12:55:23.921,104.5300,1
46523921585717,12:55:23.921,104.5300,89
46523921672218,12:55:23.921,104.5300,11
46529205725522,12:55:29.205,104.5200,20
46539087883785,12:55:39.087,104.5500,3
46547254121440,12:55:47.254,104.5100,20
46547254121440,12:55:47.254,104.5100,80
46547254163578,12:55:47.254,104.5100,20
46567321619811,12:56:07.321,104.5500,100
46567321661990,12:56:07.321,104.5500,5
46572363837013,12:56:12.363,104.5100,100
46572363837013,12:56:12.363,104.5100,10
46606842928673,12:56:46.842,104.5400,100
46638392528231,12:57:18.392,104.5100,4
46648037054784,12:57:28.037,104.5200,3
46704119007344,12:58:24.119,104.5000,10
46704119007344,12:58:24.119,104.5000,100
46704119007344,12:58:24.119,104.5000,5
46704153599473,12:58:24.153,104.4800,1
46704153599473,12:58:24.153,104.4800,99
46704153627013,12:58:24.153,104.4800,1
46727924255567,12:58:47.924,104.4700,10
46728169163451,12:58:48.169,104.4600,20
46729044605240,12:58:49.044,104.4500,3
46729120338229,12:58:49.120,104.4500,17
46729120338229,12:58:49.120,104.4400,20
46765013884105,12:59:25.013,104.4000,62
46765014846053,12:59:25.014,104.3900,20
46768008629015,12:59:28.008,104.3900,2
46782023780519,12:59:42.023,104.3700,100
46823023588484,13:00:23.023,104.4000,14
46823023588484,13:00:23.023,104.4000,24
46823083621161,13:00:23.083,104.4000,100
46827064838846,13:00:27.064,104.3900,7
46827069889672,13:00:27.069,104.4100,10
46834903491892,13:00:34.903,104.3900,10
46834903491892,13:00:34.903,104.3900,10
46834903491892,13:00:34.903,104.3900,10
46834903491892,13:00:34.903,104.3900,10
46834903491892,13:00:34.903,104.3900,60
46834903548521,13:00:34.903,104.3900,40
46834903583719,13:00:34.903,104.3900,40
46834903583719,13:00:34.903,104.3900,60
46835015042913,13:00:35.015,104.3800,100
46835015081247,13:00:35.015,104.3800,100
46840606817188,13:00:40.606,104.4100,100
46840608970781,13:00:40.608,104.4200,66
46840609334123,13:00:40.609,104.4200,34
46861166819379,13:01:01.166,104.4100,100
46894332985778,13:01:34.332,104.4400,100
46894333029270,13:01:34.333,104.4500,45
46894333704627,13:01:34.333,104.4500,2
46894333789395,13:01:34.333,104.4500,31
46904480313269,13:01:44.480,104.4500,100
46911970799486,13:01:51.970,104.4700,100
46911991423631,13:01:51.991,104.4600,100
46911991423631,13:01:51.991,104.4600,100
46911991496019,13:01:51.991,104.4600,30
46911991510819,13:01:51.991,104.4700,6
46911991510819,13:01:51.991,104.4700,10
46911991615109,13:01:51.991,104.4600,10
46918105109521,13:01:58.105,104.4300,16
46918105109521,13:01:58.105,104.4300,60
46943483412018,13:02:23.483,104.4300,100
46943670142907,13:02:23.670,104.4200,100
46948737445767,13:02:28.737,104.4100,5
46949167976752,13:02:29.167,104.4000,3
46949167976752,13:02:29.167,104.4100,97
46950399355161,13:02:30.399,104.4100,3
46950399355161,13:02:30.399,104.4100,97
46951148320342,13:02:31.148,104.4100,3
46951148320342,13:02:31.148,104.4100,97
46967302766385,13:02:47.302,104.4500,100
46982954849004,13:03:02.954,104.4500,50
46985020038290,13:03:05.020,104.4500,50
46990327008624,13:03:10.327,104.4500,30
47004507418117,13:03:24.507,104.4800,100
47105821124839,13:05:05.821,104.4100,6
47105821142325,13:05:05.821,104.4000,20
47131009298877,13:05:31.009,104.4000,2
47195591192033,13:06:35.591,104.4000,2
47195591192033,13:06:35.591,104.4100,98
47195591239630,13:06:35.591,104.4100,2
47195735502102,13:06:35.735,104.4200,100
47195736590737,13:06:35.736,104.4300,100
47211497430419,13:06:51.497,104.4400,81
47211497476581,13:06:51.497,104.4400,19
47236736051866,13:07:16.736,104.4600,30
47236736051866,13:07:16.736,104.4600,70
47261797091402,13:07:41.797,104.4400,3
47263933280040,13:07:43.933,104.4100,13
47263933280040,13:07:43.933,104.4100,6
47281039565055,13:08:01.039,104.4000,55
47281039565055,13:08:01.039,104.4000,45
47308026368045,13:08:28.026,104.3900,4
47308026368045,13:08:28.026,104.3900,6
47308026808459,13:08:28.026,104.3800,3
47309866456139,13:08:29.866,104.3800,97
47313301332067,13:08:33.301,104.3800,2
47313302887402,13:08:33.302,104.3900,48
47331576870678,13:08:51.576,104.3700,100
47335292871602,13:08:55.292,104.3600,10
47335292871602,13:08:55.292,104.3600,10
47335294011525,13:08:55.294,104.3500,10
47335294011525,13:08:55.294,104.3500,10
47351825958270,13:09:11.825,104.3900,52
47351825958270,13:09:11.825,104.3900,48
47351826285264,13:09:11.826,104.3900,52
47351826285264,13:09:11.826,104.3900,29
47351826312925,13:09:11.826,104.3900,71
47351834329567,13:09:11.834,104.3800,10
47351834329567,13:09:11.834,104.3700,10
47351834329567,13:09:11.834,104.3600,80
47351834438682,13:09:11.834,104.3900,10
47354007740141,13:09:14.007,104.3800,100
47369883845420,13:09:29.883,104.4200,40
47369883845420,13:09:29.883,104.4200,60
47373039587092,13:09:33.039,104.3700,100
47373039587092,13:09:33.039,104.3700,100
47398034839178,13:09:58.034,104.3800,100
47398034839178,13:09:58.034,104.3700,12
47398034839178,13:09:58.034,104.3700,100
47398034839178,13:09:58.034,104.3700,88
47404675717621,13:10:04.675,104.3850,40
47444779037307,13:10:44.779,104.3700,100
47444779226951,13:10:44.779,104.3700,86
47444779226951,13:10:44.779,104.3700,14
47444779302508,13:10:44.779,104.3700,3
47445031345362,13:10:45.031,104.3600,6
47449930298633,13:10:49.930,104.3600,3
47459851037888,13:10:59.851,104.3600,2
47459851037888,13:10:59.851,104.3700,100
47459851037888,13:10:59.851,104.3700,98
47459851070921,13:10:59.851,104.3700,2
47459860208833,13:10:59.860,104.3700,2
47459860208833,13:10:59.860,104.3600,100
47459860208833,13:10:59.860,104.3600,10
47459860208833,13:10:59.860,104.3600,100
47459860303930,13:10:59.860,104.3700,10
47478610403956,13:11:18.610,104.3800,100
47478610512934,13:11:18.610,104.3800,43
47532556736361,13:12:12.556,104.3700,100
47539738720671,13:12:19.738,104.3600,2
47539740789283,13:12:19.740,104.3500,6
47557728248975,13:12:37.728,104.3700,2
47557728248975,13:12:37.728,104.3700,69
47595135854399,13:13:15.135,104.3700,2
47595135854399,13:13:15.135,104.3700,98
47602333017947,13:13:22.333,104.3700,100
47602334064782,13:13:22.334,104.3700,100
47667973246592,13:14:27.973,104.3800,4
47685472808497,13:14:45.472,104.3800,1
47702361715570,13:15:02.361,104.3600,3
47702361715570,13:15:02.361,104.3600,6
47702361715570,13:15:02.361,104.3600,91
47702361817505,13:15:02.361,104.3600,9
47702361817505,13:15:02.361,104.3600,67
47702361817505,13:15:02.361,104.3600,45
47702361847026,13:15:02.361,104.3600,55
47706994895648,13:15:06.994,104.3400,10
47706994895648,13:15:06.994,104.3400,90
47706994935814,13:15:06.994,104.3400,10
47706994935814,13:15:06.994,104.3400,100
47737104818115,13:15:37.104,104.3300,3
47749045539663,13:15:49.045,104.3400,81
47749045575863,13:15:49.045,104.3400,19
47749045575863,13:15:49.045,104.3400,40
47749045580673,13:15:49.045,104.3400,60
47766452034746,13:16:06.452,104.3600,60
47789132585813,13:16:29.132,104.3600,3
47794537300243,13:16:34.537,104.3500,100
47826983676864,13:17:06.983,104.3400,68
47826983937808,13:17:06.983,104.3400,32
47826983937808,13:17:06.983,104.3400,5
47826983937808,13:17:06.983,104.3400,63
47848026797694,13:17:28.026,104.3400,3
47872645552848,13:17:52.645,104.3600,40
47908014570157,13:18:28.014,104.3400,2
47908014917715,13:18:28.014,104.3400,100
47970040346858,13:19:30.040,104.3400,2
48028027964730,13:20:28.027,104.3400,3
48028031100310,13:20:28.031,104.3600,100
48028032877044,13:20:28.032,104.3600,100
48045749285636,13:20:45.749,104.3500,5
48045749285636,13:20:45.749,104.3500,9
48045749285636,13:20:45.749,104.3500,100
48045855752657,13:20:45.855,104.3200,20
48045855752657,13:20:45.855,104.3200,80
48045855907431,13:20:45.855,104.3200,20
48045858396507,13:20:45.858,104.3100,100
48046070998765,13:20:46.070,104.3300,42
48061733224862,13:21:01.733,104.3300,100
48061733224862,13:21:01.733,104.3300,17
48061733224862,13:21:01.733,104.3300,30
48063530353378,13:21:03.530,104.3500,80
48087490649411,13:21:27.490,104.3700,20
48113708871723,13:21:53.708,104.3900,100
48113708871723,13:21:53.708,104.3900,100
48150186150006,13:22:30.186,104.3900,2
48181765785124,13:23:01.765,104.4300,2
48250495748710,13:24:10.495,104.4400,3
48250495748710,13:24:10.495,104.4400,4
48250503673267,13:24:10.503,104.4200,20
48258275006765,13:24:18.275,104.4300,100
48260959846462,13:24:20.959,104.4100,21
48260961397100,13:24:20.961,104.4000,14
48261213501276,13:24:21.213,104.3800,100
48261213501276,13:24:21.213,104.3800,100
48261215473295,13:24:21.215,104.3600,27
48268014954065,13:24:28.014,104.3800,2
48277325602433,13:24:37.325,104.4000,100
48277325602433,13:24:37.325,104.4100,100
48277325602433,13:24:37.325,104.4100,10
48278809048528,13:24:38.809,104.4300,10
48278809048528,13:24:38.809,104.4400,100
48278809048528,13:24:38.809,104.4400,10
48278814683318,13:24:38.814,104.3800,100
48278814683318,13:24:38.814,104.3800,100
48278815157886,13:24:38.815,104.3800,100
48331700119880,13:25:31.700,104.3800,2
48389962610924,13:26:29.962,104.3500,3
48389962610924,13:26:29.962,104.3500,4
48389966040117,13:26:29.966,104.3400,7
48389966040117,13:26:29.966,104.3400,20
48389967945107,13:26:29.967,104.3300,100
48389967945107,13:26:29.967,104.3300,300
48389968328187,13:26:29.968,104.3200,8
48390475129052,13:26:30.475,104.3200,100
48397835081201,13:26:37.835,104.3400,2
48397844400579,13:26:37.844,104.3500,98
48397844426528,13:26:37.844,104.3500,69
48401454048975,13:26:41.454,104.3600,11
48401454386116,13:26:41.454,104.3600,200
48425587306480,13:27:05.587,104.3100,42
48425587306480,13:27:05.587,104.3100,20
48448009504307,13:27:28.009,104.2800,3
48460807609511,13:27:40.807,104.3100,100
48460807609511,13:27:40.807,104.3100,20
48490128258454,13:28:10.128,104.3000,2
48532763498464,13:28:52.763,104.3300,2
48544604915212,13:29:04.604,104.3500,3
48635126829709,13:30:35.126,104.3600,100
48635127682801,13:30:35.127,104.3500,2
48635127682801,13:30:35.127,104.3300,1
48635127682801,13:30:35.127,104.3300,5
48690027744882,13:31:30.027,104.3300,3
48711036898494,13:31:51.036,104.3000,20
48748012462579,13:32:28.012,104.3300,2
48748012801210,13:32:28.012,104.3300,100
48778611336260,13:32:58.611,104.3500,100
48778611343421,13:32:58.611,104.3500,100
48778611369825,13:32:58.611,104.3500,50
48778611377481,13:32:58.611,104.3500,50
48778611809601,13:32:58.611,104.3600,100
48778612192610,13:32:58.612,104.3600,9
48778612219091,13:32:58.612,104.3600,5
48778612228501,13:32:58.612,104.3600,2
48788413049210,13:33:08.413,104.3700,28
48788413640078,13:33:08.413,104.3750,72
48788413640078,13:33:08.413,104.3800,28
48788414733605,13:33:08.414,104.3500,100
48788415145515,13:33:08.415,104.3400,100
48788415942985,13:33:08.415,104.3300,7
48788444808088,13:33:08.444,104.3200,16
48788445188998,13:33:08.445,104.3200,3
48788445384690,13:33:08.445,104.3200,3
48788445424284,13:33:08.445,104.3200,97
48843023192786,13:34:03.023,104.2900,100
48849018343131,13:34:09.018,104.2700,20
48852951208003,13:34:12.951,104.2600,10
48852951208003,13:34:12.951,104.2600,90
48852951232904,13:34:12.951,104.2600,100
48852951249089,13:34:12.951,104.2600,100
48852951272913,13:34:12.951,104.2600,10
48852951272913,13:34:12.951,104.2600,7
48861815749328,13:34:21.815,104.2700,3
48861815749328,13:34:21.815,104.2700,24
48903117209548,13:35:03.117,104.3000,3
48903118421141,13:35:03.118,104.3100,20
48972054700217,13:36:12.054,104.2700,7
48972055444236,13:36:12.055,104.2600,5
48972270062152,13:36:12.270,104.2700,100
48972270062152,13:36:12.270,104.2700,50
48986285672810,13:36:26.285,104.2700,50
48986285672810,13:36:26.285,104.2700,100
49010992370874,13:36:50.992,104.2900,100
49010992462453,13:36:50.992,104.3000,100
49028045787197,13:37:08.045,104.3000,2
49053595768010,13:37:33.595,104.2900,100
49053613043399,13:37:33.613,104.2800,100
49108012012845,13:38:28.012,104.2700,3
49113131978075,13:38:33.131,104.2800,20
49122178301609,13:38:42.178,104.3100,20
49168298072741,13:39:28.298,104.3100,2
49168298146358,13:39:28.298,104.3200,100
49168298420450,13:39:28.298,104.3300,20
49228049769203,13:40:28.049,104.3200,3
49237322579065,13:40:37.322,104.3300,20
49288016095178,13:41:28.016,104.3300,3
49348065429207,13:42:28.065,104.3400,2
49348065429207,13:42:28.065,104.3400,21
49348065509798,13:42:28.065,104.3400,79
49348065529375,13:42:28.065,104.3400,16
49348066297991,13:42:28.066,104.3400,5
49348066297991,13:42:28.066,104.3400,75
49348074679346,13:42:28.074,104.3300,1
49348280490063,13:42:28.280,104.3400,100
49408109364993,13:43:28.109,104.3400,3
49408117173280,13:43:28.117,104.3500,100
49408117173280,13:43:28.117,104.3500,100
49417829474501,13:43:37.829,104.3400,100
49440025139467,13:44:00.025,104.3500,50
49448868554119,13:44:08.868,104.3400,7
49448868554119,13:44:08.868,104.3400,43
49448868596821,13:44:08.868,104.3400,57
49448877296962,13:44:08.877,104.3300,35
49448877296962,13:44:08.877,104.3200,65
49455239853441,13:44:15.239,104.3200,35
49460163544952,13:44:20.163,104.3000,6
49460163544952,13:44:20.163,104.3000,27
49469010519851,13:44:29.010,104.2700,3
49469016205899,13:44:29.016,104.2800,100
49469173096481,13:44:29.173,104.2800,50
49475428559780,13:44:35.428,104.2800,100
49501601560404,13:45:01.601,104.2800,100
49501864625707,13:45:01.864,104.2700,117
49501864653396,13:45:01.864,104.2700,9
49501881653980,13:45:01.881,104.2600,20
49502349094614,13:45:02.349,104.2700,2
49575991574585,13:46:15.991,104.2900,2
49575991574585,13:46:15.991,104.2900,98
49575991578453,13:46:15.991,104.2900,2
49575991578453,13:46:15.991,104.2900,26
49575991592315,13:46:15.991,104.2900,74
49575991592315,13:46:15.991,104.2900,26
49575991597351,13:46:15.991,104.2900,4
49611983872320,13:46:51.983,104.2600,100
49611983872320,13:46:51.983,104.2600,7
49619111958712,13:46:59.111,104.2500,7
49619112496377,13:46:59.112,104.2500,3
49619112496377,13:46:59.112,104.2500,10
49619112499728,13:46:59.112,104.2400,80
49619112578676,13:46:59.112,104.2400,20
49619112578676,13:46:59.112,104.2400,20
49619115609906,13:46:59.115,104.2300,5
49619115673913,13:46:59.115,104.2200,10
49619115673913,13:46:59.115,104.2200,10
49619115673913,13:46:59.115,104.2200,300
49619117307502,13:46:59.117,104.2100,10
49619117307502,13:46:59.117,104.2100,10
49644926912721,13:47:24.926,104.2000,20
49644926912721,13:47:24.926,104.2000,30
49645031848882,13:47:25.031,104.2000,100
49649410384836,13:47:29.410,104.2000,2
49650454963074,13:47:30.454,104.1900,20
49650454963074,13:47:30.454,104.1900,80
49650454970441,13:47:30.454,104.1900,20
49654806191219,13:47:34.806,104.1800,10
49654806191219,13:47:34.806,104.1800,10
49681386469021,13:48:01.386,104.1600,20
49701750983311,13:48:21.750,104.1500,10
49701750983311,13:48:21.750,104.1500,10
49701750983311,13:48:21.750,104.1500,9
49701765363630,13:48:21.765,104.1400,10
49701765363630,13:48:21.765,104.1400,10
49701765712281,13:48:21.765,104.1300,20
49709025539257,13:48:29.025,104.1400,2
49768019436450,13:49:28.019,104.1300,2
49773468754927,13:49:33.468,104.1500,100
49773654936848,13:49:33.654,104.1500,100
49774037444576,13:49:34.037,104.1500,20
49779700670045,13:49:39.700,104.1500,100
49791894201769,13:49:51.894,104.1500,100
49797288579014,13:49:57.288,104.1500,100
49800141124364,13:50:00.141,104.1500,100
49806499065184,13:50:06.499,104.1500,100
49806499065184,13:50:06.499,104.1600,100
49814755932618,13:50:14.755,104.1600,100
49826109261111,13:50:26.109,104.1600,100
49831412989680,13:50:31.412,104.1400,100
49831413025304,13:50:31.413,104.1400,7
49831413091238,13:50:31.413,104.1400,5
49831413091238,13:50:31.413,104.1400,15
49831413792385,13:50:31.413,104.1400,14
49831687839252,13:50:31.687,104.1400,98
49833107165050,13:50:33.107,104.1500,2
49833107165050,13:50:33.107,104.1600,15
49833107165050,13:50:33.107,104.1600,83
49833107747295,13:50:33.107,104.1600,1
49833111229283,13:50:33.111,104.1500,100
49833111290024,13:50:33.111,104.1500,100
49888010730609,13:51:28.010,104.1400,108
49888012600214,13:51:28.012,104.1200,20
49888012644171,13:51:28.012,104.1200,300
49888012715285,13:51:28.012,104.1100,20
49888017077377,13:51:28.017,104.0900,20
49888021802150,13:51:28.021,104.0950,100
49888021802150,13:51:28.021,104.0700,20
49888021802150,13:51:28.021,104.0700,100
49935512395078,13:52:15.512,104.1000,100
49983955638188,13:53:03.955,104.1100,20
49986143693207,13:53:06.143,104.0900,78
50008013510436,13:53:28.013,104.1100,3
50047254071981,13:54:07.254,104.1100,100
50047254291437,13:54:07.254,104.1100,42
50047255713539,13:54:07.255,104.1100,42
50047255713539,13:54:07.255,104.1100,58
50047423644229,13:54:07.423,104.1100,100
50048340964417,13:54:08.340,104.1100,2
50048341153511,13:54:08.341,104.1100,2
50048341225919,13:54:08.341,104.1100,96
50048378490974,13:54:08.378,104.1100,100
50070732992919,13:54:30.732,104.1300,14
50076348904744,13:54:36.348,104.1300,5
50076349715996,13:54:36.349,104.1400,95
50104015740022,13:55:04.015,104.1400,9
50104015740022,13:55:04.015,104.1400,91
50104015767870,13:55:04.015,104.1400,9
50105984138660,13:55:05.984,104.1300,12
50129014601520,13:55:29.014,104.1300,2
50141405439604,13:55:41.405,104.1600,100
50146320881590,13:55:46.320,104.1800,100
50155102926308,13:55:55.102,104.1600,100
50156202177465,13:55:56.202,104.1500,100
50188009002113,13:56:28.009,104.1900,3
50222664222441,13:57:02.664,104.2500,3
50222664222441,13:57:02.664,104.2500,97
50224715287069,13:57:04.715,104.2550,100
50308013874525,13:58:28.013,104.2900,2
50330774902220,13:58:50.774,104.2800,20
50330774902220,13:58:50.774,104.2700,1
50330775019877,13:58:50.775,104.2700,20
50330796596581,13:58:50.796,104.2700,30
50330796596581,13:58:50.796,104.2600,15
50330796596581,13:58:50.796,104.2600,100
50330796596581,13:58:50.796,104.2600,70
50330796669735,13:58:50.796,104.2600,30
50330797131911,13:58:50.797,104.2500,12
50331673172476,13:58:51.673,104.2300,36
50331673218344,13:58:51.673,104.2300,100
50331673243751,13:58:51.673,104.2300,9
50331673243751,13:58:51.673,104.2300,100
50340094694349,13:59:00.094,104.2200,1
50355010923472,13:59:15.010,104.2200,1
50356919823808,13:59:16.919,104.2200,1
50390325954084,13:59:50.325,104.2900,60
50391975331195,13:59:51.975,104.2600,100
50391975331195,13:59:51.975,104.2600,100
50402677087430,14:00:02.677,104.2900,100
50402688858306,14:00:02.688,104.2400,100
50402694834941,14:00:02.694,104.2400,94
50402695374532,14:00:02.695,104.2400,6
50402697910352,14:00:02.697,104.2400,94
50402699030811,14:00:02.699,104.2400,6
50402700670938,14:00:02.700,104.2200,81
50402701791377,14:00:02.701,104.2200,14
50402701791377,14:00:02.701,104.2100,72
50402709380305,14:00:02.709,104.3100,48
50402709763479,14:00:02.709,104.3100,52
50402723372177,14:00:02.723,104.3100,100
50402758221770,14:00:02.758,104.3000,100
50402828323817,14:00:02.828,104.3000,48
50402829063057,14:00:02.829,104.3000,48
50402829262602,14:00:02.829,104.3300,7
50402832878868,14:00:02.832,104.3300,2
50402832899741,14:00:02.832,104.3300,7
50402837898720,14:00:02.837,104.3300,2
50402837917695,14:00:02.837,104.3300,7
50402843936326,14:00:02.843,104.3300,2
50402843959909,14:00:02.843,104.3300,7
50402848595954,14:00:02.848,104.3300,2
50402848614824,14:00:02.848,104.3300,7
50403013480895,14:00:03.013,104.2400,100
50404073907576,14:00:04.073,104.2500,9
50404073907576,14:00:04.073,104.2300,42
50405362072545,14:00:05.362,104.3100,16
50406725865842,14:00:06.725,104.3500,100
50406726325575,14:00:06.726,104.3500,100
50406726325575,14:00:06.726,104.3500,72
50406726375301,14:00:06.726,104.3500,172
50406727091920,14:00:06.727,104.3500,100
50406728084213,14:00:06.728,104.3500,100
50406728102479,14:00:06.728,104.3500,34
50406729746220,14:00:06.729,104.3500,13
50406730272832,14:00:06.730,104.3500,100
50406730388138,14:00:06.730,104.3500,100
50406737903433,14:00:06.737,104.3500,100
50406737903433,14:00:06.737,104.3500,100
50406737903433,14:00:06.737,104.3500,100
50406737903433,14:00:06.737,104.3500,100
50406739043235,14:00:06.739,104.3500,100
50406740551109,14:00:06.740,104.3500,100
50406740551109,14:00:06.740,104.3500,100
50406745501950,14:00:06.745,104.3500,100
50406753962117,14:00:06.753,104.3500,81
50407698096320,14:00:07.698,104.3500,19
50407698096320,14:00:07.698,104.3500,100
50407698164995,14:00:07.698,104.3500,78
50407699299097,14:00:07.699,104.3500,22
50407699299097,14:00:07.699,104.3500,100
50407699408618,14:00:07.699,104.3500,100
50407700012967,14:00:07.700,104.3500,2
50407739437696,14:00:07.739,104.3500,98
50407739437696,14:00:07.739,104.3500,2
50407748589274,14:00:07.748,104.3500,98
50407748589274,14:00:07.748,104.3500,2
50407749505427,14:00:07.749,104.3500,98
50407749505427,14:00:07.749,104.3500,2
50407759056768,14:00:07.759,104.3500,98
50407759056768,14:00:07.759,104.3500,2
50407759266051,14:00:07.759,104.3500,98
50407759266051,14:00:07.759,104.3500,2
50407759510811,14:00:07.759,104.3500,98
50407759510811,14:00:07.759,104.3500,2
50407760016560,14:00:07.760,104.3450,100
50407760017093,14:00:07.760,104.3400,100
50407774896958,14:00:07.774,104.3500,98
50407774896958,14:00:07.774,104.3500,100
50407774896958,14:00:07.774,104.3500,2
50407774929560,14:00:07.774,104.3500,22
50407774992225,14:00:07.774,104.3500,100
50407775019986,14:00:07.775,104.3500,100
50407775231704,14:00:07.775,104.3500,100
50407775231704,14:00:07.775,104.3500,66
50407775300006,14:00:07.775,104.3500,65
50407775401701,14:00:07.775,104.3500,35
50407775401701,14:00:07.775,104.3500,100
50407775401701,14:00:07.775,104.3500,10
50407775528349,14:00:07.775,104.3500,35
50407775554277,14:00:07.775,104.3500,65
50407775554277,14:00:07.775,104.3500,70
50407775701818,14:00:07.775,104.3500,100
50407775714722,14:00:07.775,104.3500,100
50407775779220,14:00:07.775,104.3500,100
50407775966001,14:00:07.775,104.3500,200
50407781217690,14:00:07.781,104.3500,100
50407781407008,14:00:07.781,104.3500,300
50407781407008,14:00:07.781,104.3500,152
50408535950267,14:00:08.535,104.3500,100
50408535950267,14:00:08.535,104.3500,100
50408536464629,14:00:08.536,104.3500,100
50408536976570,14:00:08.536,104.3500,100
50408537062596,14:00:08.537,104.3500,100
50408537493551,14:00:08.537,104.3500,100
50408537746120,14:00:08.537,104.3500,100
50408594606358,14:00:08.594,104.3500,100
50408734349186,14:00:08.734,104.3500,100
50408767829624,14:00:08.767,104.3500,100
50408767918302,14:00:08.767,104.3300,10
50408767928929,14:00:08.767,104.3300,6
50408990269982,14:00:08.990,104.3400,7
50408990269982,14:00:08.990,104.3500,93
50408991038951,14:00:08.991,104.3500,7
50408991038951,14:00:08.991,104.3500,93
50408991285432,14:00:08.991,104.3500,7
50408991335826,14:00:08.991,104.3500,100
50408992479704,14:00:08.992,104.3500,7
50408992693938,14:00:08.992,104.3500,93
50408992693938,14:00:08.992,104.3500,7
50408992776515,14:00:08.992,104.3500,58
50408993498554,14:00:08.993,104.3500,100
50408993524112,14:00:08.993,104.3500,100
50408993715160,14:00:08.993,104.3500,2
50408993715160,14:00:08.993,104.3900,78
50408993944688,14:00:08.993,104.3900,22
50408993944688,14:00:08.993,104.3900,80
50408999331738,14:00:08.999,104.3900,15
50409016272667,14:00:09.016,104.4150,19
50409016514668,14:00:09.016,104.4150,19
50409016647017,14:00:09.016,104.4150,19
50409016720990,14:00:09.016,104.4150,19
50409017886863,14:00:09.017,104.4100,19
50417589764047,14:00:17.589,104.4900,5
50423324121949,14:00:23.324,104.6200,100
50423324121949,14:00:23.324,104.5600,1
50423324589264,14:00:23.324,104.5600,100
50423325377432,14:00:23.325,104.5400,51
50423325377432,14:00:23.325,104.5300,16
50427507623688,14:00:27.507,104.6700,16
50427507623688,14:00:27.507,104.6700,84
50453169037047,14:00:53.169,104.7800,100
50471956334687,14:01:11.956,104.7800,100
50471956334687,14:01:11.956,104.7800,16
50488010041939,14:01:28.010,104.7400,2
50488010112997,14:01:28.010,104.7400,4
50537827385433,14:02:17.827,104.6800,40
50537827385433,14:02:17.827,104.6600,7
50537827385433,14:02:17.827,104.6600,60
50537828258965,14:02:17.828,104.6600,40
50537828389953,14:02:17.828,104.6600,40
50537828692585,14:02:17.828,104.6600,40
50537829024578,14:02:17.829,104.6600,20
50537830674073,14:02:17.830,104.6600,50
50537830918937,14:02:17.830,104.6600,50
50537832872478,14:02:17.832,104.6100,17
50537833663139,14:02:17.833,104.6100,9
50537840053729,14:02:17.840,104.6100,26
50537840141337,14:02:17.840,104.6100,7
50537840212940,14:02:17.840,104.6100,5
50537840424867,14:02:17.840,104.6100,6
50537864881011,14:02:17.864,104.6100,100
50538430905063,14:02:18.430,104.6400,100
50538436468320,14:02:18.436,104.6500,10
50538436544999,14:02:18.436,104.6400,10
50538436558133,14:02:18.436,104.6400,10
50551007995241,14:02:31.007,104.6800,2
50582386029555,14:03:02.386,104.7200,100
50583678396273,14:03:03.678,104.7700,100
50583678398867,14:03:03.678,104.7900,16
50583678398867,14:03:03.678,104.8000,42
50615082587076,14:03:35.082,104.8200,100
50652165304400,14:04:12.165,104.9600,100
50712023205453,14:05:12.023,105.0900,100
50712023240847,14:05:12.023,105.1000,49
50712023240847,14:05:12.023,105.1100,37
50712023245726,14:05:12.023,105.1100,63
50713301637742,14:05:13.301,105.1500,100
50736123473279,14:05:36.123,105.2100,100
50770366785644,14:06:10.366,105.1700,25
50770366785644,14:06:10.366,105.1400,20
50770366785644,14:06:10.366,105.1400,28
50770366789266,14:06:10.366,105.1400,12
50770366789266,14:06:10.366,105.1200,31
50770366789266,14:06:10.366,105.1200,30
50770366805822,14:06:10.366,105.1200,12
50770366805822,14:06:10.366,105.1100,100
50770366805822,14:06:10.366,105.1100,36
50770366820887,14:06:10.366,105.1100,50
50770367270502,14:06:10.367,105.1100,14
50770367320103,14:06:10.367,105.1000,10
50770369250445,14:06:10.369,105.1000,100
50770369250445,14:06:10.369,105.1000,100
50848019449022,14:07:28.019,105.1200,2
50908014625577,14:08:28.014,105.1200,2
50919627461396,14:08:39.627,105.1300,30
50919627665265,14:08:39.627,105.1300,29
50919627672287,14:08:39.627,105.1300,1
50919627824996,14:08:39.627,105.1300,30
50934398846259,14:08:54.398,105.1700,100
50934398846259,14:08:54.398,105.1700,46
50934398880604,14:08:54.398,105.1700,54
50934399315552,14:08:54.399,105.2000,72
50934399363894,14:08:54.399,105.2000,28
50940808560896,14:09:00.808,105.2000,30
50943611492457,14:09:03.611,105.2300,30
50944466645256,14:09:04.466,105.2700,21
50944466645256,14:09:04.466,105.2700,2
50983274937826,14:09:43.274,105.2400,8
50983385509565,14:09:43.385,105.2400,30
50983385509565,14:09:43.385,105.2400,21
50996640269531,14:09:56.640,105.2100,58
50996640445585,14:09:56.640,105.2100,48
50996640723265,14:09:56.640,105.2100,85
50996640917209,14:09:56.640,105.2500,100
51019611187968,14:10:19.611,105.2100,200
51019611280318,14:10:19.611,105.2000,100
51019611280318,14:10:19.611,105.2000,100
51019611421675,14:10:19.611,105.2000,101
51019611428414,14:10:19.611,105.2000,66
51019612688907,14:10:19.612,105.1900,100
51019612727389,14:10:19.612,105.1900,1
51024237281974,14:10:24.237,105.1700,19
51028032518084,14:10:28.032,105.1900,2
51030915728292,14:10:30.915,105.1500,100
51031051505554,14:10:31.051,105.1300,10
51031052872871,14:10:31.052,105.1200,20
51031052872871,14:10:31.052,105.1200,40
51034736593365,14:10:34.736,105.1100,20
51040792743568,14:10:40.792,105.1300,7
51040792743568,14:10:40.792,105.1500,20
51040792743568,14:10:40.792,105.1500,93
51040792776626,14:10:40.792,105.1500,7
51040792858898,14:10:40.792,105.1500,50
51040792866720,14:10:40.792,105.1500,50
51040793405461,14:10:40.793,105.1700,100
51040793405461,14:10:40.793,105.1700,100
51042981413907,14:10:42.981,105.2100,5
51081090840223,14:11:21.090,105.2200,5
51081090840223,14:11:21.090,105.2400,2
51081090840223,14:11:21.090,105.2400,93
51081090880482,14:11:21.090,105.2400,7
51081092623720,14:11:21.092,105.2400,100
51081109976726,14:11:21.109,105.2600,1
51082576620157,14:11:22.576,105.2700,7
51082978220680,14:11:22.978,105.2800,30
51145392190046,14:12:25.392,105.3000,1
51145392190046,14:12:25.392,105.3200,2
51145392264119,14:12:25.392,105.3200,1
51208007845913,14:13:28.007,105.2700,2
51208009016917,14:13:28.009,105.2900,100
51259607401227,14:14:19.607,105.3300,2
51259607401227,14:14:19.607,105.3300,2
51261964474800,14:14:21.964,105.3800,30
51281328599695,14:14:41.328,105.4100,100
51281329158839,14:14:41.329,105.4300,100
51300165111755,14:15:00.165,105.3700,200
51300169255296,14:15:00.169,105.3600,100
51300169255296,14:15:00.169,105.3600,100
51300198424898,14:15:00.198,105.3200,100
51303856285315,14:15:03.856,105.3200,3
51304777632638,14:15:04.777,105.3800,18
51305890820747,14:15:05.890,105.4000,18
51308254524668,14:15:08.254,105.3350,100
51318663769637,14:15:18.663,105.3600,8
51318677987560,14:15:18.677,105.3600,10
51318701620960,14:15:18.701,105.4000,18
51330536429386,14:15:30.536,105.3500,100
51348374331909,14:15:48.374,105.3100,100
51388015639564,14:16:28.015,105.2900,3
51410601272080,14:16:50.601,105.3300,100
51410602550555,14:16:50.602,105.3400,100
51411539296619,14:16:51.539,105.3500,4
51411551736809,14:16:51.551,105.3500,96
51429648362667,14:17:09.648,105.3800,100
51430063000849,14:17:10.063,105.3800,4
51435073415948,14:17:15.073,105.3600,100
51474663199288,14:17:54.663,105.2800,100
51480992917224,14:18:00.992,105.2700,100
51481184635709,14:18:01.184,105.2600,100
51483179793179,14:18:03.179,105.2800,2
51521722854680,14:18:41.722,105.2200,100
51522229180575,14:18:42.229,105.2000,300
51522229923658,14:18:42.229,105.1900,41
51522230276633,14:18:42.230,105.1800,100
51565022691969,14:19:25.022,105.2400,22
51571003765289,14:19:31.003,105.2100,2
51577707778788,14:19:37.707,105.2300,1
51583911549609,14:19:43.911,105.2050,186
51583912804451,14:19:43.912,105.2400,8
51583916467477,14:19:43.916,105.2400,1
51583918843340,14:19:43.918,105.2100,5
51583919908681,14:19:43.919,105.2100,5
51583919908681,14:19:43.919,105.2400,163
51583919908681,14:19:43.919,105.2400,2
51583919908681,14:19:43.919,105.2400,12
51583922651568,14:19:43.922,105.2300,100
51603653394844,14:20:03.653,105.2000,100
51626496458097,14:20:26.496,105.2000,100
51628037859924,14:20:28.037,105.2000,2
51629370442333,14:20:29.370,105.1800,100
51629370465956,14:20:29.370,105.1700,100
51635677962706,14:20:35.677,105.1600,2
51635710551879,14:20:35.710,105.1500,62
51635710579025,14:20:35.710,105.1500,38
51654274327816,14:20:54.274,105.2200,100
51654274327816,14:20:54.274,105.2200,100
51654335217237,14:20:54.335,105.2800,10
51655576171524,14:20:55.576,105.3000,29
51655681578626,14:20:55.681,105.3050,41
51655962082913,14:20:55.962,105.3050,20
51670042611878,14:21:10.042,105.2600,66
51676946375002,14:21:16.946,105.3300,30
51678796899148,14:21:18.796,105.3400,100
51678814061179,14:21:18.814,105.3500,100
51747465384035,14:22:27.465,105.3800,2
51780013324595,14:23:00.013,105.3600,2
51791476936254,14:23:11.476,105.3700,100
51802988269100,14:23:22.988,105.3800,17
51802988269100,14:23:22.988,105.3800,83
51802988293159,14:23:22.988,105.3800,17
51802988293159,14:23:22.988,105.3800,83
51802990369481,14:23:22.990,105.3700,4
51803797738839,14:23:23.797,105.4000,100
51803809766552,14:23:23.809,105.4300,30
51823947385060,14:23:43.947,105.4200,100
51856823618262,14:24:16.823,105.4100,100
51856823651385,14:24:16.823,105.4100,30
51856823651385,14:24:16.823,105.4000,25
51856824014737,14:24:16.824,105.4000,5
51856824021138,14:24:16.824,105.4000,46
51856824035082,14:24:16.824,105.4000,24
51866061485532,14:24:26.061,105.3800,100
51873013960124,14:24:33.013,105.4100,2
51900327104865,14:25:00.327,105.3950,1
51900327165736,14:25:00.327,105.3400,100
51900327198634,14:25:00.327,105.3400,25
51900327604020,14:25:00.327,105.3400,32
51900327692454,14:25:00.327,105.3400,43
51912840079055,14:25:12.840,105.3800,78
51912840107534,14:25:12.840,105.3800,22
51912840117545,14:25:12.840,105.3900,2
51988021183256,14:26:28.021,105.3400,2
52015166892254,14:26:55.166,105.3100,100
52015166892254,14:26:55.166,105.3100,100
52015206053478,14:26:55.206,105.2800,13
52015206079358,14:26:55.206,105.2800,87
52027138470446,14:27:07.138,105.3200,2
52042801419108,14:27:22.801,105.2400,100
52043876580619,14:27:23.876,105.2300,42
52043876580619,14:27:23.876,105.2200,58
52055355502286,14:27:35.355,105.2100,7
52055355510170,14:27:35.355,105.2100,7
52055355541817,14:27:35.355,105.2000,11
52081812907980,14:28:01.812,105.2100,9
52081812915170,14:28:01.812,105.2100,91
52081813642426,14:28:01.813,105.2500,6
52168021957302,14:29:28.021,105.2400,2
52168034925365,14:29:28.034,105.2700,37
52168034925365,14:29:28.034,105.2700,15
52202257976272,14:30:02.257,105.2100,100
52202258693583,14:30:02.258,105.1800,15
52204772309794,14:30:04.772,105.1300,2
52210564272201,14:30:10.564,105.1900,100
52210564272201,14:30:10.564,105.1900,100
52210564665944,14:30:10.564,105.2000,20
52213281604344,14:30:13.281,105.2100,100
52251118910961,14:30:51.118,105.2000,9
52251118910961,14:30:51.118,105.1900,91
52275182681610,14:31:15.182,105.2600,3
52275182681610,14:31:15.182,105.2600,97
52275183723825,14:31:15.183,105.2700,68
52275183723825,14:31:15.183,105.2700,57
52275183723825,14:31:15.183,105.2700,17
52275183756879,14:31:15.183,105.2700,83
52275673556878,14:31:15.673,105.2700,30
52308046922382,14:31:48.046,105.2800,2
52310257124477,14:31:50.257,105.2100,100
52310257124477,14:31:50.257,105.2100,100
52310260597226,14:31:50.260,105.1800,78
52310260630295,14:31:50.260,105.1800,22
52348008827541,14:32:28.008,105.2000,3
52382675324572,14:33:02.675,105.1500,1
52392678556170,14:33:12.678,105.2000,3
52392678556170,14:33:12.678,105.2000,5
52392678556170,14:33:12.678,105.2000,67
52392992540615,14:33:12.992,105.2000,33
52392992540615,14:33:12.992,105.2000,67
52392992567969,14:33:12.992,105.2000,96
52433613434501,14:33:53.613,105.2500,100
52455099007277,14:34:15.099,105.2900,3
52496876317566,14:34:56.876,105.3000,100
52496877352095,14:34:56.877,105.3100,100
52496956504961,14:34:56.956,105.3200,30
52506819205245,14:35:06.819,105.3700,2
52506819205245,14:35:06.819,105.3700,100
52514220785240,14:35:14.220,105.3200,2
52514220862971,14:35:14.220,105.3200,100
52515303378038,14:35:15.303,105.3100,100
52517992725414,14:35:17.992,105.3000,100
52558123385426,14:35:58.123,105.2700,87
52558123412309,14:35:58.123,105.2700,13
52560664350832,14:36:00.664,105.2400,100
52560664374486,14:36:00.664,105.2300,100
52560664390696,14:36:00.664,105.2300,100
52561308384198,14:36:01.308,105.2300,100
52564459083803,14:36:04.459,105.2600,76
52572338902653,14:36:12.338,105.1900,5
52572357442326,14:36:12.357,105.1700,191
52579108177988,14:36:19.108,105.2300,3
52579108179876,14:36:19.108,105.2400,47
52579115097657,14:36:19.115,105.2300,3
52579115652942,14:36:19.115,105.2300,90
52579119164477,14:36:19.119,105.2300,100
52610506318939,14:36:50.506,105.2400,56
52610506345270,14:36:50.506,105.2400,44
52610506345270,14:36:50.506,105.2400,100
52618383914398,14:36:58.383,105.2400,78
52618383958857,14:36:58.383,105.2400,100
52618383986144,14:36:58.383,105.2400,22
52636831959435,14:37:16.831,105.2200,2
52636833128064,14:37:16.833,105.2300,100
52644094919806,14:37:24.094,105.2700,30
52645855979279,14:37:25.855,105.2800,5
52645855986733,14:37:25.855,105.2800,5
52645856033851,14:37:25.856,105.2800,5
52645856050951,14:37:25.856,105.2800,85
52647031583415,14:37:27.031,105.2900,5
52668038412485,14:37:48.038,105.3300,2
52668334882645,14:37:48.334,105.3500,5
52678009704633,14:37:58.009,105.3600,5
52678009704633,14:37:58.009,105.3600,100
52689463349820,14:38:09.463,105.3900,5
52701586760748,14:38:21.586,105.4000,2
52710093647372,14:38:30.093,105.3400,100
52720018823197,14:38:40.018,105.3800,11
52720019112237,14:38:40.019,105.3800,74
52720020438176,14:38:40.020,105.3800,15
52720021306753,14:38:40.021,105.3800,2
52720664070692,14:38:40.664,105.4100,10
52720664070692,14:38:40.664,105.4100,30
52720664122141,14:38:40.664,105.4100,56
52728215011781,14:38:48.215,105.4200,5
52728215272358,14:38:48.215,105.4400,2
52728215272358,14:38:48.215,105.4400,30
52728580328880,14:38:48.580,105.4400,70
52730186078199,14:38:50.186,105.4700,5
52764113598913,14:39:24.113,105.3500,1
52802053828939,14:40:02.053,105.4100,63
52809119973116,14:40:09.119,105.3600,2
52818548392221,14:40:18.548,105.3500,20
52841385117669,14:40:41.385,105.3500,80
52841385117669,14:40:41.385,105.3500,100
52841385117669,14:40:41.385,105.3500,50
52850341190805,14:40:50.341,105.3600,3
52872426607493,14:41:12.426,105.3600,3
52872426607493,14:41:12.426,105.3600,100
52892264792910,14:41:32.264,105.3300,100
52921186226134,14:42:01.186,105.3200,14
52921209121549,14:42:01.209,105.3400,10
52936902557420,14:42:16.902,105.3500,100
52936902557420,14:42:16.902,105.3500,100
52936904041770,14:42:16.904,105.3700,100
52936904066789,14:42:16.904,105.3700,15
52936904105195,14:42:16.904,105.3700,85
52936945587495,14:42:16.945,105.4100,44
52942170234716,14:42:22.170,105.4100,20
52956138979715,14:42:36.138,105.3800,20
52956138979715,14:42:36.138,105.3800,100
52956139051763,14:42:36.139,105.3800,14
52957995913349,14:42:37.995,105.3600,100
52957995939090,14:42:37.995,105.3600,5
52995049884686,14:43:15.049,105.3300,100
52996022897036,14:43:16.022,105.3000,6
52996158382407,14:43:16.158,105.2700,100
53016377394674,14:43:36.377,105.3600,100
53032121706340,14:43:52.121,105.3900,5
53032995695665,14:43:52.995,105.4000,10
53034650103760,14:43:54.650,105.4100,10
53057865699000,14:44:17.865,105.4200,2
53058488024241,14:44:18.488,105.4300,1
53090245458678,14:44:50.245,105.4800,5
53090250686264,14:44:50.250,105.4900,10
53090251604104,14:44:50.251,105.4900,100
53090251935741,14:44:50.251,105.4800,100
53090252499313,14:44:50.252,105.4900,10
53090252499313,14:44:50.252,105.4900,90
53090254474269,14:44:50.254,105.4900,10
53108089139945,14:45:08.089,105.5000,100
53108089139945,14:45:08.089,105.5000,16
53114607678781,14:45:14.607,105.4800,2
53150074636013,14:45:50.074,105.4500,100
53163150663026,14:46:03.150,105.4900,60
53163150663026,14:46:03.150,105.4900,30
53163150663026,14:46:03.150,105.5000,100
53163150663026,14:46:03.150,105.5000,10
53163150698582,14:46:03.150,105.5000,90
53163151089358,14:46:03.151,105.5100,5
53165763315611,14:46:05.763,105.5000,100
53165763345408,14:46:05.763,105.5000,100
53165763345408,14:46:05.763,105.5000,1
53165763386119,14:46:05.763,105.5000,10
53165763774208,14:46:05.763,105.4800,2
53165764412249,14:46:05.764,105.4800,8
53165764438312,14:46:05.764,105.4800,92
53189253966545,14:46:29.253,105.5300,2
53189253966545,14:46:29.253,105.5300,8
53189257747430,14:46:29.257,105.5500,2
53189257747430,14:46:29.257,105.5500,8
53189257747430,14:46:29.257,105.5600,100
53189257747430,14:46:29.257,105.5600,30
53189285852850,14:46:29.285,105.5700,10
53189296104978,14:46:29.296,105.5800,1
53189296104978,14:46:29.296,105.5800,7
53189296104978,14:46:29.296,105.5800,2
53213948762048,14:46:53.948,105.6000,8
53213948762048,14:46:53.948,105.6200,92
53230181801106,14:47:10.181,105.6300,100
53230181801106,14:47:10.181,105.6300,100
53230305984254,14:47:10.305,105.6400,100
53245146889690,14:47:25.146,105.6000,45
53245146920292,14:47:25.146,105.6000,55
53245146920292,14:47:25.146,105.6000,11
53248000651209,14:47:28.000,105.5700,100
53308024498662,14:48:28.024,105.5400,3
53318691668122,14:48:38.691,105.5800,100
53318691712986,14:48:38.691,105.5800,3
53325727394096,14:48:45.727,105.5900,100
53348174850110,14:49:08.174,105.6500,100
53368028774379,14:49:28.028,105.5900,2
53423464419206,14:50:23.464,105.5500,100
53423465619806,14:50:23.465,105.5400,100
53423467076515,14:50:23.467,105.5000,100
53423467076515,14:50:23.467,105.5000,100
53428061414218,14:50:28.061,105.5300,2
53428061928360,14:50:28.061,105.5300,100
53428061928360,14:50:28.061,105.5300,200
53438002309418,14:50:38.002,105.5000,100
53438002348247,14:50:38.002,105.4900,100
53438002348247,14:50:38.002,105.4900,100
53438003987430,14:50:38.003,105.4900,100
53464967237951,14:51:04.967,105.4300,42
53465672356262,14:51:05.672,105.4300,1
53488007534913,14:51:28.007,105.4300,2
53488125635899,14:51:28.125,105.4600,14
53521645153661,14:52:01.645,105.4700,2
53521645153661,14:52:01.645,105.4800,98
53521645201329,14:52:01.645,105.4800,2
53522932152155,14:52:02.932,105.5100,100
53522981742974,14:52:02.981,105.5400,62
53523236008090,14:52:03.236,105.5200,1
53537877829963,14:52:17.877,105.5800,5
53537877829963,14:52:17.877,105.5800,100
53537878199475,14:52:17.878,105.6000,5
53541448095740,14:52:21.448,105.5700,93
53541448124811,14:52:21.448,105.5700,7
53542001050067,14:52:22.001,105.6100,5
53554603441899,14:52:34.603,105.6400,5
53554603441899,14:52:34.603,105.6400,100
53556077560140,14:52:36.077,105.6600,5
53558670209979,14:52:38.670,105.6700,5
53574513527707,14:52:54.513,105.6700,2
53574513527707,14:52:54.513,105.6800,8
53574514336769,14:52:54.514,105.6800,2
53574539199933,14:52:54.539,105.6900,10
53580560596915,14:53:00.560,105.7000,30
53599305725078,14:53:19.305,105.7200,10
53599305725078,14:53:19.305,105.7200,90
53599305798181,14:53:19.305,105.7200,10
53599305798181,14:53:19.305,105.7200,100
53599306301369,14:53:19.306,105.7300,2
53601453017744,14:53:21.453,105.7300,2
53601453017744,14:53:21.453,105.7400,5
53609327888979,14:53:29.327,105.7500,2
53609327888979,14:53:29.327,105.7600,1
53609673661775,14:53:29.673,105.7700,5
53630273983882,14:53:50.273,105.8200,30
53630460908701,14:53:50.460,105.8600,100
53630460924130,14:53:50.460,105.8600,1
53644882480063,14:54:04.882,105.8600,3
53644882480063,14:54:04.882,105.8600,7
53680263816061,14:54:40.263,105.7700,100
53680264293357,14:54:40.264,105.7600,30
53680264348485,14:54:40.264,105.7600,70
53680264647834,14:54:40.264,105.7600,100
53680266066899,14:54:40.266,105.7600,100
53680266079214,14:54:40.266,105.7600,100
53680267351508,14:54:40.267,105.7500,146
53680267361925,14:54:40.267,105.7600,100
53680267443203,14:54:40.267,105.7500,100
53680552662612,14:54:40.552,105.7600,14
53715273931713,14:55:15.273,105.8200,4
53716075555674,14:55:16.075,105.8600,14
53740428555700,14:55:40.428,105.8300,2
53781562839282,14:56:21.562,105.7800,100
53783004050589,14:56:23.004,105.7300,100
53783004073544,14:56:23.004,105.7300,100
53783044584568,14:56:23.044,105.7400,34
53788018124546,14:56:28.018,105.7000,2
53789696806395,14:56:29.696,105.7400,2
53789696806395,14:56:29.696,105.7500,9
53789696806395,14:56:29.696,105.7500,14
53789696806395,14:56:29.696,105.7500,98
53789697825712,14:56:29.697,105.7500,2
53789751161819,14:56:29.751,105.7800,78
53798070394999,14:56:38.070,105.7800,22
53798070394999,14:56:38.070,105.7800,100
53806697141945,14:56:46.697,105.8000,100
53824387520467,14:57:04.387,105.7800,14
53824387913396,14:57:04.387,105.8100,10
53824388433061,14:57:04.388,105.7800,10
53824388433061,14:57:04.388,105.7800,100
53825373957336,14:57:05.373,105.7800,100
53825904901529,14:57:05.904,105.7900,78
53827019207458,14:57:07.019,105.7900,54
53839187881919,14:57:19.187,105.7900,59
53844124094028,14:57:24.124,105.8400,5
53870453123427,14:57:50.453,105.8600,5
53870453123427,14:57:50.453,105.8600,95
53870453194627,14:57:50.453,105.8600,5
53873002577326,14:57:53.002,105.8700,1
53873557503202,14:57:53.557,105.9200,5
53873557791758,14:57:53.557,105.9300,5
53886187579732,14:58:06.187,105.8900,2
53886212511317,14:58:06.212,105.9200,13
53886212511317,14:58:06.212,105.9200,14
53932160149553,14:58:52.160,105.9200,13
53932160149553,14:58:52.160,105.9200,44
53932160149553,14:58:52.160,105.9200,43
53968029413864,14:59:28.029,105.8600,2
53971609736391,14:59:31.609,105.9100,1
53999010781824,14:59:59.010,105.9000,30
53999275083625,14:59:59.275,105.8900,100
53999275083625,14:59:59.275,105.8800,100
54001092811160,15:00:01.092,105.8800,100
54001126522620,15:00:01.126,105.8600,4
54001126937373,15:00:01.126,105.8600,2
54001126963162,15:00:01.126,105.8600,2
54001128576820,15:00:01.128,105.8600,66
54010295736015,15:00:10.295,105.8700,3
54010295736015,15:00:10.295,105.8700,10
54027758728313,15:00:27.758,105.8200,100
54029255263771,15:00:29.255,105.8500,76
54072335290431,15:01:12.335,105.8000,55
54072335317589,15:01:12.335,105.8000,45
54072335317589,15:01:12.335,105.8000,100
54072335361556,15:01:12.335,105.8000,100
54088043694218,15:01:28.043,105.7700,2
54095135679192,15:01:35.135,105.7800,78
54095135753040,15:01:35.135,105.7800,22
54095135753040,15:01:35.135,105.7800,2
54148023850283,15:02:28.023,105.7700,2
54170362294377,15:02:50.362,105.8000,171
54170362294377,15:02:50.362,105.8000,29
54170362751513,15:02:50.362,105.8000,71
54186803485910,15:03:06.803,105.7400,14
54186803936001,15:03:06.803,105.7300,100
54186803936001,15:03:06.803,105.7300,9
54186874369920,15:03:06.874,105.7100,1
54210664327810,15:03:30.664,105.6900,100
54210664354856,15:03:30.664,105.6800,100
54210664693001,15:03:30.664,105.6800,11
54211198131843,15:03:31.198,105.6700,2
54213168718522,15:03:33.168,105.7000,3
54257208085252,15:04:17.208,105.7000,100
54257208143542,15:04:17.208,105.7000,100
54278469897655,15:04:38.469,105.6800,100
54306463756310,15:05:06.463,105.6500,100
54306464887045,15:05:06.464,105.6200,50
54306471128119,15:05:06.471,105.6200,50
54312367515169,15:05:12.367,105.6200,100
54333289835027,15:05:33.289,105.5700,4
54333290310559,15:05:33.290,105.5500,42
54333317661997,15:05:33.317,105.5700,20
54334016182165,15:05:34.016,105.5700,3
54340460631231,15:05:40.460,105.5700,77
54371637518106,15:06:11.637,105.5000,20
54377138611232,15:06:17.138,105.5100,2
54377138611232,15:06:17.138,105.5100,11
54377139030045,15:06:17.139,105.5100,89
54377139030045,15:06:17.139,105.5100,1
54377139943495,15:06:17.139,105.5200,100
54377139943495,15:06:17.139,105.5200,85
54377141124412,15:06:17.141,105.5300,100
54378010636614,15:06:18.010,105.5400,100
54402201527390,15:06:42.201,105.5500,100
54423238512233,15:07:03.238,105.5300,30
54423238512233,15:07:03.238,105.5300,80
54423239048255,15:07:03.239,105.5300,20
54448035312322,15:07:28.035,105.5200,2
54475080684372,15:07:55.080,105.5000,50
54475080722202,15:07:55.080,105.5000,50
54488013195796,15:08:08.013,105.5400,100
54502759068982,15:08:22.759,105.5600,100
54512705605263,15:08:32.705,105.5200,100
54512705634910,15:08:32.705,105.5200,6
54512705641936,15:08:32.705,105.5200,6
54512705648003,15:08:32.705,105.5200,6
54512705686430,15:08:32.705,105.5200,88
54512725351126,15:08:32.725,105.5100,100
54514865158621,15:08:34.865,105.4900,100
54514865158621,15:08:34.865,105.4900,100
54544435845861,15:09:04.435,105.4600,27
54547866009513,15:09:07.866,105.4400,100
54547866033645,15:09:07.866,105.4400,100
54560208812467,15:09:20.208,105.4600,21
54560208838895,15:09:20.208,105.4500,100
54560208838895,15:09:20.208,105.4600,31
54560208849422,15:09:20.208,105.4600,48
54560208849422,15:09:20.208,105.4600,1
54560208851455,15:09:20.208,105.4600,49
54560208851455,15:09:20.208,105.4600,1
54560208882146,15:09:20.208,105.4600,1
54569873839961,15:09:29.873,105.4500,100
54581338681704,15:09:41.338,105.4400,100
54610693098102,15:10:10.693,105.4150,100
54623490524934,15:10:23.490,105.3900,100
54623490524934,15:10:23.490,105.3900,7
54623490554806,15:10:23.490,105.3900,100
54628048717940,15:10:28.048,105.3800,2
54688020333732,15:11:28.020,105.2900,2
54689062454501,15:11:29.062,105.3200,100
54691542661931,15:11:31.542,105.3400,100
54691542661931,15:11:31.542,105.3400,100
54691542661931,15:11:31.542,105.3400,40
54691543713337,15:11:31.543,105.3500,100
54691548369888,15:11:31.548,105.3500,40
54691566137682,15:11:31.566,105.3700,5
54741963891758,15:12:21.963,105.3700,2
54745618100871,15:12:25.618,105.3600,60
54750586048529,15:12:30.586,105.3600,5
54750586076473,15:12:30.586,105.3600,5
54750586097125,15:12:30.586,105.3600,5
54750586099942,15:12:30.586,105.3600,5
54750586169934,15:12:30.586,105.3600,5
54750586319732,15:12:30.586,105.3600,5
54750586343740,15:12:30.586,105.3600,5
54750586397481,15:12:30.586,105.3600,5
54750586452522,15:12:30.586,105.3500,5
54750592199268,15:12:30.592,105.3400,4
54750592226262,15:12:30.592,105.3400,33
54763869073967,15:12:43.869,105.3800,14
54763932428673,15:12:43.932,105.3800,26
54808032838321,15:13:28.032,105.3700,2
54855632110182,15:14:15.632,105.3800,100
54858015820433,15:14:18.015,105.3800,100
54862214480658,15:14:22.214,105.3800,100
54891546392322,15:14:51.546,105.3900,58
54891546436998,15:14:51.546,105.3900,42
54891546436998,15:14:51.546,105.3900,5
54891546436998,15:14:51.546,105.3900,2
54891546436998,15:14:51.546,105.3900,42
54891547172945,15:14:51.547,105.3900,58
54904371321917,15:15:04.371,105.3800,97
54904371365291,15:15:04.371,105.3800,3
54911311417708,15:15:11.311,105.4000,100
54921927147703,15:15:21.927,105.4000,100
54921927147703,15:15:21.927,105.4000,100
54921927864358,15:15:21.927,105.4100,2
54921927864358,15:15:21.927,105.4100,98
54921927895258,15:15:21.927,105.4100,2
54932193883756,15:15:32.193,105.4200,1
54932193883756,15:15:32.193,105.4200,40
54932195789016,15:15:32.195,105.4200,100
54932195789016,15:15:32.195,105.4100,100
54932199613453,15:15:32.199,105.4100,100
54953888499294,15:15:53.888,105.4300,4
54953935792594,15:15:53.935,105.4300,4
54953935792594,15:15:53.935,105.4300,66
54961060110588,15:16:01.060,105.4300,100
54967928235743,15:16:07.928,105.4400,2
54973380265433,15:16:13.380,105.4400,100
54973393485396,15:16:13.393,105.4500,1
54973393611462,15:16:13.393,105.4500,10
54973396922799,15:16:13.396,105.4500,10
54973398028757,15:16:13.398,105.4500,10
54984155020873,15:16:24.155,105.4200,6
54984155020873,15:16:24.155,105.4200,100
54984155020873,15:16:24.155,105.4200,94
54984155106646,15:16:24.155,105.4200,100
54984155111450,15:16:24.155,105.4200,6
54990459160554,15:16:30.459,105.4100,100
54990476150400,15:16:30.476,105.4000,100
54990476644841,15:16:30.476,105.4000,100
54993365858719,15:16:33.365,105.3900,100
54993365858719,15:16:33.365,105.3900,100
54998442219154,15:16:38.442,105.3800,100
54999034972429,15:16:39.034,105.3600,6
54999147935319,15:16:39.147,105.3400,100
55014310206142,15:16:54.310,105.3800,96
55014313459956,15:16:54.313,105.3800,4
55028302063223,15:17:08.302,105.3800,100
55031205288036,15:17:11.205,105.3900,3
55031205288036,15:17:11.205,105.3900,100
55031205288036,15:17:11.205,105.3900,97
55031205893557,15:17:11.205,105.3900,3
55049165152822,15:17:29.165,105.3700,78
55049165207208,15:17:29.165,105.3700,22
55049165207208,15:17:29.165,105.3700,100
55081452310391,15:18:01.452,105.3600,100
55091953795040,15:18:11.953,105.3200,10
55100207830765,15:18:20.207,105.3400,2
55100207830765,15:18:20.207,105.3400,98
55100207870414,15:18:20.207,105.3400,2
55101920564118,15:18:21.920,105.3700,100
55110740983322,15:18:30.740,105.3600,100
55139274950170,15:18:59.274,105.3600,53
55139275054251,15:18:59.275,105.3600,47
55149206543872,15:19:09.206,105.3700,2
55149206543872,15:19:09.206,105.3700,98
55175524483907,15:19:35.524,105.3700,10
55175525634495,15:19:35.525,105.3800,100
55175525689760,15:19:35.525,105.3800,100
55185261996188,15:19:45.261,105.3900,50
55185265359551,15:19:45.265,105.4000,100
55190876735858,15:19:50.876,105.3900,23
55190876786719,15:19:50.876,105.3900,54
55190876803741,15:19:50.876,105.3900,23
55204103090021,15:20:04.103,105.4000,100
55204103090021,15:20:04.103,105.4000,100
55204103090660,15:20:04.103,105.4000,10
55204185796925,15:20:04.185,105.4000,79
55207370792627,15:20:07.370,105.4000,21
55210071542784,15:20:10.071,105.4100,100
55237518801455,15:20:37.518,105.4200,100
55237521890571,15:20:37.521,105.4300,100
55237574895548,15:20:37.574,105.4500,100
55240346372237,15:20:40.346,105.4600,10
55260019156755,15:21:00.019,105.4400,100
55270139198015,15:21:10.139,105.4500,200
55271234704270,15:21:11.234,105.4600,100
55271234704270,15:21:11.234,105.4600,23
55271248316051,15:21:11.248,105.4700,10
55271248316051,15:21:11.248,105.4700,93
55271307234607,15:21:11.307,105.4700,7
55271618959842,15:21:11.618,105.4700,72
55292418935572,15:21:32.418,105.4200,30
55292418935572,15:21:32.418,105.4200,48
55292418964019,15:21:32.418,105.4200,52
55292420557257,15:21:32.420,105.4100,20
55292420557257,15:21:32.420,105.4100,80
55292420595951,15:21:32.420,105.4100,1
55292420596501,15:21:32.420,105.4100,19
55296672466475,15:21:36.672,105.3900,19
55296673138603,15:21:36.673,105.3900,81
55296673138603,15:21:36.673,105.3900,11
55299297405377,15:21:39.297,105.3700,100
55300320345327,15:21:40.320,105.3600,100
55310714004621,15:21:50.714,105.3700,100
55310791048470,15:21:50.791,105.3800,2
55310792821220,15:21:50.792,105.3800,100
55310792914467,15:21:50.792,105.3800,20
55330944338518,15:22:10.944,105.3500,7
55330944890821,15:22:10.944,105.3400,100
55330945284007,15:22:10.945,105.3400,1
55336694163816,15:22:16.694,105.3200,100
55336694200344,15:22:16.694,105.3100,100
55339299592492,15:22:19.299,105.3200,3
55354315645297,15:22:34.315,105.3000,100
55391861370910,15:23:11.861,105.2700,193
55391861370910,15:23:11.861,105.2700,100
55408030056090,15:23:28.030,105.2500,3
55446478429146,15:24:06.478,105.2100,2
55448892666949,15:24:08.892,105.2200,100
55448893280226,15:24:08.893,105.2200,100
55448893280226,15:24:08.893,105.2200,100
55458020978926,15:24:18.020,105.2400,100
55463925614084,15:24:23.925,105.2500,100
55463925673805,15:24:23.925,105.2500,100
55496049552976,15:24:56.049,105.2300,100
55496049552976,15:24:56.049,105.2300,100
55496049552976,15:24:56.049,105.2300,12
55496049552976,15:24:56.049,105.2300,192
55496049552976,15:24:56.049,105.2300,96
55496049585970,15:24:56.049,105.2300,4
55496050100754,15:24:56.050,105.2200,100
55514112363308,15:25:14.112,105.2500,26
55514112398782,15:25:14.112,105.2500,50
55514112426911,15:25:14.112,105.2500,18
55514112564050,15:25:14.112,105.2500,26
55514112765025,15:25:14.112,105.2500,26
55514112837681,15:25:14.112,105.2500,26
55514112901083,15:25:14.112,105.2500,26
55514113123397,15:25:14.113,105.2500,2
55525298055006,15:25:25.298,105.2300,100
55525298237655,15:25:25.298,105.2300,100
55528471285591,15:25:28.471,105.2200,100
55532262630351,15:25:32.262,105.2300,100
55532262980773,15:25:32.262,105.2300,100
55532477988007,15:25:32.477,105.2500,100
55532477988007,15:25:32.477,105.2500,66
55588016792449,15:26:28.016,105.2200,2
55618789116504,15:26:58.789,105.2000,11
55620007630601,15:27:00.007,105.2000,89
55620007630601,15:27:00.007,105.2000,100
55620007630601,15:27:00.007,105.2000,11
55620007630601,15:27:00.007,105.2000,100
55620007707849,15:27:00.007,105.1900,30
55638029328645,15:27:18.029,105.2100,3
55638029328645,15:27:18.029,105.2100,49
55638029770044,15:27:18.029,105.2100,28
55638030121135,15:27:18.030,105.2100,23
55673120429825,15:27:53.120,105.1700,100
55673120538394,15:27:53.120,105.1700,19
55673120998429,15:27:53.120,105.1700,64
55673142619514,15:27:53.142,105.1800,5
55673145153150,15:27:53.145,105.1800,50
55673145765315,15:27:53.145,105.1800,45
55673214286876,15:27:53.214,105.1900,50
55673214286876,15:27:53.214,105.1900,200
55676961134430,15:27:56.961,105.2000,100
55676961134430,15:27:56.961,105.2000,50
55676994156117,15:27:56.994,105.2100,100
55676994156117,15:27:56.994,105.2100,100
55693823802738,15:28:13.823,105.2100,50
55698374325494,15:28:18.374,105.2200,100
55707439630473,15:28:27.439,105.2100,56
55707439689984,15:28:27.439,105.2100,44
55707439751818,15:28:27.439,105.2100,100
55707439831516,15:28:27.439,105.2100,15
55708021939515,15:28:28.021,105.2100,100
55708122956166,15:28:28.122,105.2200,200
55753075678687,15:29:13.075,105.1800,100
55757467167067,15:29:17.467,105.1600,19
55757467167067,15:29:17.467,105.1600,13
55759068223922,15:29:19.068,105.1500,100
55762617504202,15:29:22.617,105.1300,100
55764821155788,15:29:24.821,105.1400,2
55802554869772,15:30:02.554,105.0800,15
55802554894489,15:30:02.554,105.0800,85
55802555304095,15:30:02.555,105.0800,100
55802558612985,15:30:02.558,105.0700,2
55802558640419,15:30:02.558,105.0700,96
55802558642275,15:30:02.558,105.0700,2
55802559250244,15:30:02.559,105.0600,64
55802559283390,15:30:02.559,105.0600,36
55802559678029,15:30:02.559,105.0700,96
55802559690405,15:30:02.559,105.0700,4
55803224812085,15:30:03.224,105.0800,16
55813806537488,15:30:13.806,105.0500,59
55813842042976,15:30:13.842,105.0500,1
55813842179821,15:30:13.842,105.0400,10
55813842562160,15:30:13.842,105.0500,10
55814139409814,15:30:14.139,105.0500,90
55814139874037,15:30:14.139,105.0500,10
55822124332113,15:30:22.124,105.0300,100
55826141592632,15:30:26.141,105.0300,100
55826141646041,15:30:26.141,105.0300,100
55828550093736,15:30:28.550,105.0600,53
55828550988582,15:30:28.550,105.0600,47
55830848156769,15:30:30.848,105.0800,200
55830848156769,15:30:30.848,105.0800,100
55850139875534,15:30:50.139,105.0800,21
55850139875534,15:30:50.139,105.0800,193
55850139875534,15:30:50.139,105.0800,50
55870895478645,15:31:10.895,105.0500,2
55872402388899,15:31:12.402,105.0800,100
55872402388899,15:31:12.402,105.0800,108
55872409406239,15:31:12.409,105.0800,92
55872433046085,15:31:12.433,105.0900,60
55872433046085,15:31:12.433,105.0900,40
55872458842503,15:31:12.458,105.0900,60
55872893304702,15:31:12.893,105.1000,100
55873433684607,15:31:13.433,105.1000,100
55873434437991,15:31:13.434,105.1100,100
55877393697518,15:31:17.393,105.1100,100
55879818970400,15:31:19.818,105.1100,21
55905195979432,15:31:45.195,105.1000,55
55905196025824,15:31:45.196,105.1000,45
55905243357221,15:31:45.243,105.0900,100
55905243645940,15:31:45.243,105.0900,100
55905244007143,15:31:45.244,105.0900,8
55907021475410,15:31:47.021,105.0900,100
55907031002540,15:31:47.031,105.0800,100
55907031427526,15:31:47.031,105.0800,100
55907031964286,15:31:47.031,105.0800,15
55907655456026,15:31:47.655,105.0800,100
55907655481709,15:31:47.655,105.0700,100
55907655507485,15:31:47.655,105.0700,100
55908415203103,15:31:48.415,105.0500,27
55908415203103,15:31:48.415,105.0500,73
55915722517263,15:31:55.722,105.0800,100
55915722517263,15:31:55.722,105.0800,100
55920009107989,15:32:00.009,105.1000,100
55920009107989,15:32:00.009,105.1000,21
55920009107989,15:32:00.009,105.1000,50
55920810114470,15:32:00.810,105.0900,100
55924173444094,15:32:04.173,105.1100,100
55946196562572,15:32:26.196,105.0800,21
55946196562572,15:32:26.196,105.0800,27
55946196563370,15:32:26.196,105.0800,73
55946196563370,15:32:26.196,105.0800,27
55946196564862,15:32:26.196,105.0800,49
55946196663035,15:32:26.196,105.0800,24
55946196663035,15:32:26.196,105.0800,29
55946196663035,15:32:26.196,105.0800,100
55953025353053,15:32:33.025,105.0600,36
55953025353053,15:32:33.025,105.0600,64
55955011291426,15:32:35.011,105.0300,2
55958739316649,15:32:38.739,105.0500,100
55958740431565,15:32:38.740,105.0400,100
55958741260221,15:32:38.741,105.0400,100
56008031204182,15:33:28.031,105.0500,2
56027834685098,15:33:47.834,105.0400,100
56027834685098,15:33:47.834,105.0400,8
56027834685098,15:33:47.834,105.0400,21
56027851551280,15:33:47.851,105.0300,1
56027851551280,15:33:47.851,105.0300,100
56028066235466,15:33:48.066,105.0100,79
56028066261180,15:33:48.066,105.0100,100
56028066261180,15:33:48.066,105.0100,79
56028066262884,15:33:48.066,105.0100,21
56028206845222,15:33:48.206,104.9900,100
56036407225478,15:33:56.407,104.9400,100
56036407252537,15:33:56.407,104.9400,100
56043247112631,15:34:03.247,104.9100,100
56043248219700,15:34:03.248,104.9200,100
56043342286096,15:34:03.342,104.9200,100
56044244923723,15:34:04.244,104.9100,32
56044905241624,15:34:04.905,104.9100,100
56044905241624,15:34:04.905,104.9100,200
56044906207174,15:34:04.906,104.9200,2
56062806339414,15:34:22.806,104.8800,100
56062844237037,15:34:22.844,104.8800,50
56062844315698,15:34:22.844,104.8800,10
56063081033751,15:34:23.081,104.8800,90
56069513579100,15:34:29.513,104.9100,100
56069513579100,15:34:29.513,104.9100,200
56072897998613,15:34:32.897,104.9300,100
56088450108513,15:34:48.450,104.9000,78
56088450156848,15:34:48.450,104.9000,22
56088450163147,15:34:48.450,104.9000,22
56088451076722,15:34:48.451,104.8900,100
56088472543830,15:34:48.472,104.8700,22
56088472543830,15:34:48.472,104.8700,42
56088472570226,15:34:48.472,104.8700,58
56092245358880,15:34:52.245,104.8600,100
56092248156385,15:34:52.248,104.8500,100
56094511182437,15:34:54.511,104.8600,100
56094511182437,15:34:54.511,104.8600,193
56094511386431,15:34:54.511,104.8600,7
56099933430350,15:34:59.933,104.9000,59
56099933458323,15:34:59.933,104.9000,41
56099940102614,15:34:59.940,104.9100,13
56103604055113,15:35:03.604,104.9200,60
56103833112607,15:35:03.833,104.9200,40
56103833112607,15:35:03.833,104.9200,30
56103883800610,15:35:03.883,104.9200,22
56118430170306,15:35:18.430,104.9300,60
56119512777551,15:35:19.512,104.9500,100
56119514142256,15:35:19.514,104.9500,100
56119520909321,15:35:19.520,104.9800,400
56119520909321,15:35:19.520,104.9800,75
56119521477477,15:35:19.521,104.9800,78
56119777826859,15:35:19.777,104.9800,22
56119777826859,15:35:19.777,104.9900,78
56119777871166,15:35:19.777,104.9900,22
56134638873088,15:35:34.638,105.0400,47
56134638879590,15:35:34.638,105.0400,53
56144463397430,15:35:44.463,105.0100,100
56144464750166,15:35:44.464,104.9900,42
56144464750166,15:35:44.464,104.9900,6
56144468009969,15:35:44.468,105.0100,186
56144468035771,15:35:44.468,105.0100,100
56144468035771,15:35:44.468,105.0100,200
56144468067129,15:35:44.468,105.0100,20
56165831741576,15:36:05.831,105.0100,100
56165906108637,15:36:05.906,105.0100,35
56168065826683,15:36:08.065,104.9900,100
56169207304745,15:36:09.207,104.9700,100
56170304198647,15:36:10.304,104.9500,100
56185895324558,15:36:25.895,104.9500,100
56188057502771,15:36:28.057,104.9500,2
