timestamp,time,price,volume
34200820078846,09:30:00.820,0.0000,0
34428617199223,09:33:48.617,16.5600,114
34428617899017,09:33:48.617,16.5500,5
34428617899017,09:33:48.617,16.5600,95
34428618554092,09:33:48.618,16.5600,100
34501201896359,09:35:01.201,16.4800,30
34501201896359,09:35:01.201,16.4800,76
34501201921653,09:35:01.201,16.4800,100
34501201931289,09:35:01.201,16.4800,24
34503643746834,09:35:03.643,16.4800,300
34503643746834,09:35:03.643,16.4800,76
34683985781953,09:38:03.985,16.4400,100
34683996112877,09:38:03.996,16.4400,200
34805167796519,09:40:05.167,16.4450,100
34805173031575,09:40:05.173,16.4500,100
34806817070249,09:40:06.817,16.4500,100
34806817096628,09:40:06.817,16.4500,700
34806819378519,09:40:06.819,16.4300,100
34806819852049,09:40:06.819,16.4200,100
34867234142952,09:41:07.234,16.4300,30
34902957279926,09:41:42.957,16.4700,200
34910380843078,09:41:50.380,16.4600,100
34910381516569,09:41:50.381,16.4500,100
34910381804329,09:41:50.381,16.4500,50
34910382114427,09:41:50.382,16.4500,430
34910382133397,09:41:50.382,16.4500,120
34944492635420,09:42:24.492,16.4100,1000
34949536834864,09:42:29.536,16.3500,100
34957919735699,09:42:37.919,16.3200,100
34957924389373,09:42:37.924,16.3100,100
34957930036171,09:42:37.930,16.3000,100
34957930149390,09:42:37.930,16.3000,200
34957930149390,09:42:37.930,16.3000,300
34957932266535,09:42:37.932,16.3000,100
34957933280706,09:42:37.933,16.3000,100
34957939670353,09:42:37.939,16.3000,300
34957939822878,09:42:37.939,16.3000,100
35026014941221,09:43:46.014,16.2900,99
35134147710527,09:45:34.147,16.2850,101
35134147710527,09:45:34.147,16.2850,99
35149648485312,09:45:49.648,16.2850,1
35149648485312,09:45:49.648,16.2850,100
35149648485312,09:45:49.648,16.3000,99
35157598574577,09:45:57.598,16.2900,101
35210568819158,09:46:50.568,16.2850,1
35210568819158,09:46:50.568,16.2850,99
35210570242179,09:46:50.570,16.3000,100
35210575223501,09:46:50.575,16.2900,60
35210575223501,09:46:50.575,16.3000,40
35210575295479,09:46:50.575,16.3000,60
35214835408501,09:46:54.835,16.3100,200
35218281563969,09:46:58.281,16.3400,200
35218281563969,09:46:58.281,16.3400,100
35218281750586,09:46:58.281,16.3400,100
35285749844136,09:48:05.749,16.3400,100
35285749844136,09:48:05.749,16.3300,70
35285750515973,09:48:05.750,16.3300,100
35286121059113,09:48:06.121,16.3300,100
35303843816772,09:48:23.843,16.3100,200
35325787552091,09:48:45.787,16.3000,100
35325834101357,09:48:45.834,16.3050,200
35325902274028,09:48:45.902,16.3050,100
35325907109399,09:48:45.907,16.3050,57
35326105459754,09:48:46.105,16.3100,300
35384282967398,09:49:44.282,16.3000,100
35432214811144,09:50:32.214,16.3200,100
35432221149348,09:50:32.221,16.3200,100
35432221149348,09:50:32.221,16.3200,100
35432221200137,09:50:32.221,16.3200,100
35432221202117,09:50:32.221,16.3200,100
35450612113470,09:50:50.612,16.3300,100
35478175863133,09:51:18.175,16.3400,100
35478175863133,09:51:18.175,16.3400,100
35478175863133,09:51:18.175,16.3400,100
35478182166332,09:51:18.182,16.3400,100
35485534479971,09:51:25.534,16.3200,100
35485539696006,09:51:25.539,16.3100,100
35485541639013,09:51:25.541,16.3100,41
35485541663149,09:51:25.541,16.3100,59
35486812882231,09:51:26.812,16.3100,100
35486812935912,09:51:26.812,16.3100,80
35526757749262,09:52:06.757,16.3100,67
35594950761735,09:53:14.950,16.2900,100
35594952415639,09:53:14.952,16.2800,100
35724037626490,09:55:24.037,16.2900,1
35724037629591,09:55:24.037,16.2900,1
35724037631045,09:55:24.037,16.2900,1
35752185525651,09:55:52.185,16.3100,100
35752186830728,09:55:52.186,16.3100,100
35754549402766,09:55:54.549,16.3100,64
35754549402766,09:55:54.549,16.3100,100
35754549731953,09:55:54.549,16.3100,88
35754549735152,09:55:54.549,16.3100,12
35754549887776,09:55:54.549,16.3100,100
35754550061623,09:55:54.550,16.3100,100
35764552189970,09:56:04.552,16.2900,171
35764552189970,09:56:04.552,16.2900,100
35765201090566,09:56:05.201,16.2900,186
35818954654877,09:56:58.954,16.2900,14
35818954654877,09:56:58.954,16.2900,86
35818954681167,09:56:58.954,16.2900,14
35861934587907,09:57:41.934,16.2900,200
35861935251914,09:57:41.935,16.2900,1
35973014794198,09:59:33.014,16.2900,1
35977301500455,09:59:37.301,16.2900,62
35980844262940,09:59:40.844,16.2900,37
36002215526437,10:00:02.215,16.3100,100
36011168383698,10:00:11.168,16.3100,100
36012634031369,10:00:12.634,16.3000,100
36128196035607,10:02:08.196,16.3000,100
36168593059641,10:02:48.593,16.2900,165
36168593059641,10:02:48.593,16.2900,200
36168593059641,10:02:48.593,16.2900,2
36168593695566,10:02:48.593,16.2900,100
36168593963111,10:02:48.593,16.2800,100
36168595545850,10:02:48.595,16.2900,51
36168639979342,10:02:48.639,16.2900,100
36169155013536,10:02:49.155,16.2900,100
36169155927053,10:02:49.155,16.2900,100
36210281017171,10:03:30.281,16.2900,100
36210781010446,10:03:30.781,16.2900,100
36211287013376,10:03:31.287,16.2900,100
36211787010945,10:03:31.787,16.2900,100
36212287011733,10:03:32.287,16.2900,100
36212787012983,10:03:32.787,16.2900,100
36213291013425,10:03:33.291,16.2900,100
36213791012782,10:03:33.791,16.2900,100
36224069790089,10:03:44.069,16.3000,100
36224069790089,10:03:44.069,16.3000,8
36251144832968,10:04:11.144,16.2900,60
36267441479195,10:04:27.441,16.2800,100
36267441534114,10:04:27.441,16.2800,62
36267441534114,10:04:27.441,16.2800,38
36267441582735,10:04:27.441,16.2800,162
36267442281335,10:04:27.442,16.2800,100
36267442345044,10:04:27.442,16.2800,140
36267609809127,10:04:27.609,16.2700,81
36275633405588,10:04:35.633,16.2800,40
36275633405588,10:04:35.633,16.2800,100
36275633857430,10:04:35.633,16.2800,100
36275634940389,10:04:35.634,16.2800,100
36293194496219,10:04:53.194,16.2700,171
36300476481796,10:05:00.476,16.2600,1
36300476481796,10:05:00.476,16.2600,1
36300476481796,10:05:00.476,16.2600,1
36300476481796,10:05:00.476,16.2600,1
36300476481796,10:05:00.476,16.2600,1
36300490491510,10:05:00.490,16.2600,1
36330630259098,10:05:30.630,16.2600,75
36330657155263,10:05:30.657,16.2500,3
36330657657901,10:05:30.657,16.2500,18
36330657681659,10:05:30.657,16.2500,156
36332308622669,10:05:32.308,16.2200,25
36352960468485,10:05:52.960,16.2250,91
36370939024354,10:06:10.939,16.2300,68
36370940092419,10:06:10.940,16.2300,16
36370940092419,10:06:10.940,16.2400,55
36370969121631,10:06:10.969,16.2400,145
36385654691932,10:06:25.654,16.2500,200
36422658641903,10:07:02.658,16.2400,1
36422658641903,10:07:02.658,16.2400,98
36437677447957,10:07:17.677,16.2350,100
36437677447957,10:07:17.677,16.2300,161
36437677490335,10:07:17.677,16.2300,100
36454908116936,10:07:34.908,16.2300,100
36525608015731,10:08:45.608,16.2300,2
36525608015731,10:08:45.608,16.2300,1
36525608015731,10:08:45.608,16.2300,1
36525608015731,10:08:45.608,16.2300,1
36525608015731,10:08:45.608,16.2300,1
36525608015731,10:08:45.608,16.2300,1
36525608015731,10:08:45.608,16.2400,133
36525608438101,10:08:45.608,16.2400,67
36540912880480,10:09:00.912,16.2350,100
36540912880480,10:09:00.912,16.2400,100
36540912880480,10:09:00.912,16.2400,100
36540912894941,10:09:00.912,16.2400,100
36540912894941,10:09:00.912,16.2400,100
36540914848140,10:09:00.914,16.2400,100
36562506212641,10:09:22.506,16.2400,100
36562506212641,10:09:22.506,16.2400,197
36600144320057,10:10:00.144,16.2500,77
36632319428450,10:10:32.319,16.2400,1
36639414679085,10:10:39.414,16.2450,23
36639414679085,10:10:39.414,16.2500,123
36639414679085,10:10:39.414,16.2500,162
36641766585411,10:10:41.766,16.2500,100
36641766585411,10:10:41.766,16.2500,100
36641766585411,10:10:41.766,16.2500,100
36641766585411,10:10:41.766,16.2500,100
36641766585411,10:10:41.766,16.2500,327
36641770376531,10:10:41.770,16.2400,196
36641770427900,10:10:41.770,16.2400,104
36641770427900,10:10:41.770,16.2400,100
36641771333447,10:10:41.771,16.2300,100
36641771420438,10:10:41.771,16.2300,100
36641771535341,10:10:41.771,16.2300,100
36647676839712,10:10:47.676,16.2350,2
36648711038721,10:10:48.711,16.2350,3
36649098206174,10:10:49.098,16.2350,2
36649943100227,10:10:49.943,16.2350,2
36650855136249,10:10:50.855,16.2350,3
36651761753103,10:10:51.761,16.2350,2
36652130733207,10:10:52.130,16.2350,86
36652130733207,10:10:52.130,16.2350,3
36652130733207,10:10:52.130,16.2400,11
36662212965657,10:11:02.212,16.2400,100
36679320117651,10:11:19.320,16.2400,2
36679980406349,10:11:19.980,16.2400,2
36682076105267,10:11:22.076,16.2400,3
36682091658882,10:11:22.091,16.2400,2
36682113448364,10:11:22.113,16.2400,9
36682123823025,10:11:22.123,16.2400,9
36682443453071,10:11:22.443,16.2400,9
36682453833323,10:11:22.453,16.2400,8
36682994957345,10:11:22.994,16.2400,3
36683005470298,10:11:23.005,16.2400,12
36684005847041,10:11:24.005,16.2400,11
36684016124582,10:11:24.016,16.2400,12
36684435586014,10:11:24.435,16.2400,2
36684445873680,10:11:24.445,16.2400,13
36684505621938,10:11:24.505,16.2400,3
36684505621938,10:11:24.505,16.2400,8
36684505621938,10:11:24.505,16.2500,3
36684517180429,10:11:24.517,16.2500,41
36687759360379,10:11:27.759,16.2400,95
36688263790712,10:11:28.263,16.2400,5
36688263790712,10:11:28.263,16.2400,62
36688274332402,10:11:28.274,16.2400,33
36688274332402,10:11:28.274,16.2400,35
36688275528841,10:11:28.275,16.2400,27
36688275528841,10:11:28.275,16.2500,14
36691249051816,10:11:31.249,16.2450,100
36691251097860,10:11:31.251,16.2450,74
36691251097860,10:11:31.251,16.2500,26
36698736999559,10:11:38.736,16.2500,100
36708737452427,10:11:48.737,16.2600,100
36708737452427,10:11:48.737,16.2600,100
36708737532392,10:11:48.737,16.2600,100
36745560012501,10:12:25.560,16.2700,17
36751664806510,10:12:31.664,16.2700,40
36751664933733,10:12:31.664,16.2700,43
36751664933733,10:12:31.664,16.2800,157
36751664985635,10:12:31.664,16.2800,43
36751664985635,10:12:31.664,16.2800,100
36760042826723,10:12:40.042,16.2850,416
36760042826723,10:12:40.042,16.2800,100
36760043175218,10:12:40.043,16.2800,416
36760201945700,10:12:40.201,16.2800,100
36760201945700,10:12:40.201,16.2800,200
36782526628510,10:13:02.526,16.2900,200
36782526659559,10:13:02.526,16.2900,100
36831430941850,10:13:51.430,16.3000,45
36831430967519,10:13:51.430,16.3000,153
36831430977523,10:13:51.430,16.3000,2
36831431621230,10:13:51.431,16.3100,100
36831431718821,10:13:51.431,16.3100,100
36832507008931,10:13:52.507,16.3150,100
36832681623916,10:13:52.681,16.3300,46
36832681649527,10:13:52.681,16.3300,2
36832682135478,10:13:52.682,16.3300,252
36836690073368,10:13:56.690,16.3450,534
36836690073368,10:13:56.690,16.3300,200
36836690073368,10:13:56.690,16.3300,122
36836690073368,10:13:56.690,16.3300,1
36836690073368,10:13:56.690,16.3300,1
36836690073368,10:13:56.690,16.3300,100
36836690073368,10:13:56.690,16.3300,100
36836690073368,10:13:56.690,16.3300,29
36836690818417,10:13:56.690,16.3300,100
36836690818417,10:13:56.690,16.3300,100
36836690818417,10:13:56.690,16.3300,101
36836690818417,10:13:56.690,16.3400,99
36836690896825,10:13:56.690,16.3400,1
36836696941979,10:13:56.696,16.3500,100
36836755079383,10:13:56.755,16.3500,100
36837604270318,10:13:57.604,16.3600,200
36857984743325,10:14:17.984,16.3800,200
36857984743325,10:14:17.984,16.3800,100
36861823765255,10:14:21.823,16.3800,99
36861823765255,10:14:21.823,16.3800,100
36861823765255,10:14:21.823,16.3800,32
36861824233326,10:14:21.824,16.3800,68
36861824233326,10:14:21.824,16.3800,100
36870579961422,10:14:30.579,16.3700,200
36870579961422,10:14:30.579,16.3700,100
36870579961422,10:14:30.579,16.3700,100
36870579961422,10:14:30.579,16.3700,100
36870579961422,10:14:30.579,16.3700,178
36873613530572,10:14:33.613,16.3600,200
36873613530572,10:14:33.613,16.3600,100
36873613530572,10:14:33.613,16.3600,185
36880409010654,10:14:40.409,16.3500,100
36888402086841,10:14:48.402,16.3550,100
36897416123427,10:14:57.416,16.3500,177
36897416123427,10:14:57.416,16.3500,400
36897642311418,10:14:57.642,16.3500,100
36897642311418,10:14:57.642,16.3500,177
36927678175808,10:15:27.678,16.3500,2
36927678175808,10:15:27.678,16.3500,100
36939214049597,10:15:39.214,16.3400,200
36939214049597,10:15:39.214,16.3400,100
36972058147775,10:16:12.058,16.3200,170
36972058147775,10:16:12.058,16.3200,100
36973058288978,10:16:13.058,16.3100,100
36973146424527,10:16:13.146,16.3000,100
36988914246664,10:16:28.914,16.2950,100
36988914246664,10:16:28.914,16.2950,100
36988914279086,10:16:28.914,16.2950,100
36988914279086,10:16:28.914,16.3000,100
36988914416843,10:16:28.914,16.3000,100
36989202677304,10:16:29.202,16.3000,100
36989202677304,10:16:29.202,16.3000,100
36989202714978,10:16:29.202,16.3000,200
36989202714978,10:16:29.202,16.3000,22
36989202754018,10:16:29.202,16.3000,111
37006465017034,10:16:46.465,16.2900,158
37006465017034,10:16:46.465,16.2900,42
37006465247686,10:16:46.465,16.2900,58
37006465247686,10:16:46.465,16.2900,16
37006465268302,10:16:46.465,16.2900,84
37006465268302,10:16:46.465,16.2900,37
37006465450679,10:16:46.465,16.2900,111
37006465470134,10:16:46.465,16.2900,121
37010245664211,10:16:50.245,16.2900,194
37010245664211,10:16:50.245,16.2900,225
37010246940816,10:16:50.246,16.2800,100
37010247514122,10:16:50.247,16.2800,100
37018572294543,10:16:58.572,16.2800,100
37022421474634,10:17:02.421,16.2600,100
37058493978745,10:17:38.493,16.2500,1
37058493978745,10:17:38.493,16.2500,99
37058494061168,10:17:38.494,16.2500,13
37059041093905,10:17:39.041,16.2450,74
37059041442759,10:17:39.041,16.2450,26
37059041442759,10:17:39.041,16.2450,48
37064132087863,10:17:44.132,16.2400,100
37074885066479,10:17:54.885,16.2300,100
37078221286154,10:17:58.221,16.2300,100
37078221542825,10:17:58.221,16.2400,200
37078221542825,10:17:58.221,16.2400,100
37078221975732,10:17:58.221,16.2400,100
37093250121443,10:18:13.250,16.2500,74
37093250121443,10:18:13.250,16.2500,26
37094290086346,10:18:14.290,16.2550,74
37094292530995,10:18:14.292,16.2550,100
37094294401947,10:18:14.294,16.2550,100
37094296237741,10:18:14.296,16.2550,100
37094298081959,10:18:14.298,16.2550,100
37095992019877,10:18:15.992,16.2550,100
37095992019877,10:18:15.992,16.2600,100
37095992019877,10:18:15.992,16.2600,100
37095992019877,10:18:15.992,16.2600,100
37095992061903,10:18:15.992,16.2600,100
37180427723497,10:19:40.427,16.2750,100
37180706476727,10:19:40.706,16.2750,100
37180706476727,10:19:40.706,16.2800,200
37180726651452,10:19:40.726,16.2800,100
37206625885673,10:20:06.625,16.3050,100
37206625885673,10:20:06.625,16.3100,100
37206625885673,10:20:06.625,16.3100,74
37206626116938,10:20:06.626,16.3100,100
37239173082448,10:20:39.173,16.3400,100
37242315642548,10:20:42.315,16.3500,100
37245589970012,10:20:45.589,16.3600,100
37246087987365,10:20:46.087,16.3600,100
37247516372735,10:20:47.516,16.3600,100
37270457738132,10:21:10.457,16.3700,100
37270460037291,10:21:10.460,16.3700,1
37270460360890,10:21:10.460,16.3700,99
37270460360890,10:21:10.460,16.3700,1
37270460536175,10:21:10.460,16.3700,100
37270461230350,10:21:10.461,16.3700,100
37270471782147,10:21:10.471,16.3650,1
37271253224328,10:21:11.253,16.3600,200
37271253224328,10:21:11.253,16.3600,100
37271253224328,10:21:11.253,16.3600,36
37271253683343,10:21:11.253,16.3600,64
37271253683343,10:21:11.253,16.3600,100
37271253683343,10:21:11.253,16.3600,100
37271253683343,10:21:11.253,16.3600,100
37271253683343,10:21:11.253,16.3600,100
37271253710331,10:21:11.253,16.3600,238
37281629530698,10:21:21.629,16.3700,100
37281629951431,10:21:21.629,16.3700,200
37319694537650,10:21:59.694,16.3700,99
37323255374450,10:22:03.255,16.3800,100
37336223952940,10:22:16.223,16.4000,100
37336223990733,10:22:16.223,16.4000,100
37364939459709,10:22:44.939,16.4000,100
37364939459709,10:22:44.939,16.4000,100
37364939527609,10:22:44.939,16.4000,100
37364939527609,10:22:44.939,16.4000,400
37364940898149,10:22:44.940,16.3900,100
37364940898149,10:22:44.940,16.3900,100
37364940898149,10:22:44.940,16.3900,100
37364941519950,10:22:44.941,16.3800,100
37364941828235,10:22:44.941,16.3800,100
37364941828235,10:22:44.941,16.3800,100
37364942459924,10:22:44.942,16.3700,1
37364944218625,10:22:44.944,16.3900,100
37374843831166,10:22:54.843,16.3900,100
37380673186511,10:23:00.673,16.3900,100
37396595100708,10:23:16.595,16.3900,100
37396595100708,10:23:16.595,16.3900,99
37396597491712,10:23:16.597,16.3800,100
37396597491712,10:23:16.597,16.3800,100
37396597491712,10:23:16.597,16.3800,100
37396597491712,10:23:16.597,16.3800,193
37396597491712,10:23:16.597,16.3800,100
37396602591450,10:23:16.602,16.3700,59
37396602594205,10:23:16.602,16.3700,41
37396669323846,10:23:16.669,16.3600,100
37399573230315,10:23:19.573,16.3500,100
37399728649583,10:23:19.728,16.3500,100
37420041341066,10:23:40.041,16.3550,199
37420041341066,10:23:40.041,16.3550,1
37420041900156,10:23:40.041,16.3550,199
37420041900156,10:23:40.041,16.3600,1
37427860754215,10:23:47.860,16.3600,100
37427860796642,10:23:47.860,16.3500,100
37427860796642,10:23:47.860,16.3500,100
37427860796642,10:23:47.860,16.3500,100
37427860801018,10:23:47.860,16.3600,99
37429201260185,10:23:49.201,16.3400,100
37429201260185,10:23:49.201,16.3400,2
37429201260185,10:23:49.201,16.3400,195
37434655315242,10:23:54.655,16.3300,100
37434655316756,10:23:54.655,16.3400,200
37434656747113,10:23:54.656,16.3400,100
37434656771503,10:23:54.656,16.3400,100
37434656771503,10:23:54.656,16.3400,100
37449395699524,10:24:09.395,16.3300,100
37464519910840,10:24:24.519,16.3300,100
37492748574434,10:24:52.748,16.3300,100
37514757434809,10:25:14.757,16.3400,100
37514757459328,10:25:14.757,16.3400,100
37532637411219,10:25:32.637,16.3450,100
37532637411219,10:25:32.637,16.3500,100
37532637436538,10:25:32.637,16.3500,100
37638739831134,10:27:18.739,16.3500,178
37638739831134,10:27:18.739,16.3500,144
37638739831134,10:27:18.739,16.3500,39
37638739831134,10:27:18.739,16.3500,200
37638742467031,10:27:18.742,16.3400,100
37638742467031,10:27:18.742,16.3400,100
37638742467031,10:27:18.742,16.3400,100
37638742535883,10:27:18.742,16.3400,169
37638742535883,10:27:18.742,16.3400,100
37640244452813,10:27:20.244,16.3400,100
37640244593450,10:27:20.244,16.3350,100
37640445045767,10:27:20.445,16.3400,100
37654156605422,10:27:34.156,16.3350,100
37667605112797,10:27:47.605,16.3350,100
37667605602377,10:27:47.605,16.3400,100
37694233985762,10:28:14.233,16.3350,100
37700285669510,10:28:20.285,16.3400,10
37700287346244,10:28:20.287,16.3400,90
37700287346244,10:28:20.287,16.3400,100
37705271074428,10:28:25.271,16.3400,100
37705271074428,10:28:25.271,16.3400,100
37711201494463,10:28:31.201,16.3200,100
37737098724735,10:28:57.098,16.3200,100
37737098724735,10:28:57.098,16.3300,100
37737098751004,10:28:57.098,16.3300,100
37800081967477,10:30:00.081,16.3300,100
37800081967477,10:30:00.081,16.3300,1
37800081967477,10:30:00.081,16.3300,1
37800081967477,10:30:00.081,16.3300,1
37800081967477,10:30:00.081,16.3300,1
37800081967477,10:30:00.081,16.3400,96
37800090082709,10:30:00.090,16.3400,104
37800211174271,10:30:00.211,16.3350,100
37800212836976,10:30:00.212,16.3400,100
37800360340228,10:30:00.360,16.3350,100
37802538604812,10:30:02.538,16.3500,100
37802538940786,10:30:02.538,16.3500,40
37802538962257,10:30:02.538,16.3500,120
37802538965609,10:30:02.538,16.3500,40
37802623612821,10:30:02.623,16.3450,77
37802623619721,10:30:02.623,16.3450,18
37803465965815,10:30:03.465,16.3450,100
37803965966172,10:30:03.965,16.3450,100
37804200838238,10:30:04.200,16.3400,400
37804200838238,10:30:04.200,16.3400,200
37845641076580,10:30:45.641,16.3400,100
37845641469189,10:30:45.641,16.3450,132
37845641469189,10:30:45.641,16.3500,68
37845641526257,10:30:45.641,16.3500,32
37845641526257,10:30:45.641,16.3500,100
37845641622928,10:30:45.641,16.3500,100
37846872550322,10:30:46.872,16.3500,100
37849117659338,10:30:49.117,16.3500,100
37849257505338,10:30:49.257,16.3500,100
37849257505338,10:30:49.257,16.3500,100
37849257505338,10:30:49.257,16.3500,139
37849257505338,10:30:49.257,16.3500,161
37849257564965,10:30:49.257,16.3500,39
37860597786462,10:31:00.597,16.3500,100
37860597786462,10:31:00.597,16.3500,100
37860930140789,10:31:00.930,16.3500,100
37860930140789,10:31:00.930,16.3500,100
37866202324744,10:31:06.202,16.3450,100
37866202324744,10:31:06.202,16.3500,7
37866202467578,10:31:06.202,16.3500,93
37866202467578,10:31:06.202,16.3500,100
37888893295294,10:31:28.893,16.3450,100
37888893295294,10:31:28.893,16.3500,100
37888893295294,10:31:28.893,16.3500,200
37888893295294,10:31:28.893,16.3500,100
37888893295294,10:31:28.893,16.3500,100
37888893362895,10:31:28.893,16.3500,100
37888893373040,10:31:28.893,16.3500,100
37888899052793,10:31:28.899,16.3600,100
37889084250149,10:31:29.084,16.3600,100
37889084250149,10:31:29.084,16.3500,141
37889084250149,10:31:29.084,16.3500,100
37889084250149,10:31:29.084,16.3500,200
37889084250149,10:31:29.084,16.3500,100
37889084250149,10:31:29.084,16.3500,100
37889084758492,10:31:29.084,16.3500,100
37889087709698,10:31:29.087,16.3450,100
37889614969606,10:31:29.614,16.3500,100
37889615097372,10:31:29.615,16.3450,100
37889615730201,10:31:29.615,16.3500,100
37891262695197,10:31:31.262,16.3500,200
37891262695197,10:31:31.262,16.3500,100
37891350884600,10:31:31.350,16.3400,99
37891350977633,10:31:31.350,16.3400,101
37891350977633,10:31:31.350,16.3400,100
37891350977633,10:31:31.350,16.3400,200
37891350977633,10:31:31.350,16.3400,100
37891350977633,10:31:31.350,16.3400,200
37891350977633,10:31:31.350,16.3400,100
37891351277054,10:31:31.351,16.3400,82
37891351281076,10:31:31.351,16.3400,18
37891353929241,10:31:31.353,16.3350,1
37891354034870,10:31:31.354,16.3350,99
37891355316471,10:31:31.355,16.3400,100
37891355316471,10:31:31.355,16.3400,100
37891355316471,10:31:31.355,16.3400,339
37891355343924,10:31:31.355,16.3400,61
37892121219321,10:31:32.121,16.3500,100
37908342228093,10:31:48.342,16.3600,19
37908342228093,10:31:48.342,16.3600,100
37908570546590,10:31:48.570,16.3700,7
37921205681723,10:32:01.205,16.3800,100
37921205706348,10:32:01.205,16.3800,40
37922158836045,10:32:02.158,16.3800,100
37922158836045,10:32:02.158,16.3800,100
37922158989864,10:32:02.158,16.3800,100
37930106906260,10:32:10.106,16.3900,100
37930106914886,10:32:10.106,16.3900,100
37930137177787,10:32:10.137,16.3900,100
37938497724410,10:32:18.497,16.3900,100
37938501246085,10:32:18.501,16.4000,40
37940242973961,10:32:20.242,16.4050,100
37949486470321,10:32:29.486,16.3950,200
37949486470321,10:32:29.486,16.3950,60
37949486470321,10:32:29.486,16.4000,40
37957894306202,10:32:37.894,16.3950,100
37957894306202,10:32:37.894,16.4000,160
37957894410787,10:32:37.894,16.4000,100
37957894445402,10:32:37.894,16.4000,100
37957894536172,10:32:37.894,16.4000,31
37957894640741,10:32:37.894,16.4000,100
37957895159446,10:32:37.895,16.4000,100
37957895457218,10:32:37.895,16.4000,69
37957895457218,10:32:37.895,16.4000,300
37957895457218,10:32:37.895,16.4000,131
37957895561130,10:32:37.895,16.4000,100
37957895639992,10:32:37.895,16.4000,100
37957895639992,10:32:37.895,16.4000,100
37957896115518,10:32:37.896,16.3950,100
37960032341766,10:32:40.032,16.3950,90
37963411578816,10:32:43.411,16.3950,10
37967698601536,10:32:47.698,16.3900,300
37967698601536,10:32:47.698,16.3900,300
37967698601536,10:32:47.698,16.3900,100
37967698601536,10:32:47.698,16.3900,95
37967698643652,10:32:47.698,16.3900,336
37967698668517,10:32:47.698,16.3900,109
37976864414021,10:32:56.864,16.3950,1
37986653100401,10:33:06.653,16.3900,100
37986653100401,10:33:06.653,16.3900,100
37986653100401,10:33:06.653,16.3900,300
37986653100401,10:33:06.653,16.3900,200
37986653100401,10:33:06.653,16.3900,173
37986653100401,10:33:06.653,16.3900,200
37986655537479,10:33:06.655,16.3800,100
37986656395060,10:33:06.656,16.3800,100
37986865940859,10:33:06.865,16.3650,99
37986865940859,10:33:06.865,16.3700,1
37987194885053,10:33:07.194,16.3700,99
38007238976466,10:33:27.238,16.3850,100
38007238976466,10:33:27.238,16.3900,100
38007238976466,10:33:27.238,16.3900,100
38007238976466,10:33:27.238,16.3900,300
38007239030115,10:33:27.239,16.3900,100
38017417377361,10:33:37.417,16.3900,200
38017417377361,10:33:37.417,16.3900,100
38017417377361,10:33:37.417,16.3900,500
38024200850738,10:33:44.200,16.3850,100
38024857256626,10:33:44.857,16.3850,100
38024857306259,10:33:44.857,16.3900,100
38046583399741,10:34:06.583,16.3950,100
38071517835379,10:34:31.517,16.3950,1
38071517835379,10:34:31.517,16.3950,1
38071517835379,10:34:31.517,16.3950,100
38071517835379,10:34:31.517,16.3950,1
38071517835379,10:34:31.517,16.4000,100
38071517835379,10:34:31.517,16.4000,97
38071517867357,10:34:31.517,16.4000,103
38071517867357,10:34:31.517,16.4000,197
38071517868903,10:34:31.517,16.4000,300
38071518047828,10:34:31.518,16.4000,103
38071518047828,10:34:31.518,16.4000,197
38071525401945,10:34:31.525,16.4000,100
38071525401945,10:34:31.525,16.4000,100
38071525401945,10:34:31.525,16.4000,200
38071525401945,10:34:31.525,16.4000,100
38071525439090,10:34:31.525,16.4000,26
38071525439090,10:34:31.525,16.4000,300
38089945140201,10:34:49.945,16.4000,15
38089945170340,10:34:49.945,16.4000,70
38089945176844,10:34:49.945,16.4000,15
38089945176844,10:34:49.945,16.4000,70
38091791733654,10:34:51.791,16.4000,100
38091792064060,10:34:51.792,16.4000,100
38091792130989,10:34:51.792,16.4000,100
38091793471903,10:34:51.793,16.4000,200
38091793471903,10:34:51.793,16.4000,100
38091793471903,10:34:51.793,16.4000,100
38091793471903,10:34:51.793,16.4000,200
38112234197679,10:35:12.234,16.3950,1
38112234197679,10:35:12.234,16.3950,1
38112234197679,10:35:12.234,16.4000,100
38112234197679,10:35:12.234,16.4000,98
38112235089231,10:35:12.235,16.4000,2
38113202000825,10:35:13.202,16.4000,50
38113202610225,10:35:13.202,16.4000,100
38153174942321,10:35:53.174,16.3900,189
38153174942321,10:35:53.174,16.3900,9
38153175009759,10:35:53.175,16.3900,91
38153175009759,10:35:53.175,16.3900,200
38153175009759,10:35:53.175,16.3900,200
38153175009759,10:35:53.175,16.3900,100
38153175009759,10:35:53.175,16.3900,100
38153175067963,10:35:53.175,16.3900,100
38153175167711,10:35:53.175,16.3900,100
38153175167711,10:35:53.175,16.3900,100
38153220944492,10:35:53.220,16.3850,100
38155178445874,10:35:55.178,16.3800,184
38155178445874,10:35:55.178,16.3800,100
38155178445874,10:35:55.178,16.3800,100
38155178445874,10:35:55.178,16.3800,100
38156748280307,10:35:56.748,16.3750,100
38165212499343,10:36:05.212,16.3700,100
38165212499343,10:36:05.212,16.3700,200
38165212499343,10:36:05.212,16.3700,165
38165817029250,10:36:05.817,16.3400,100
38166212963509,10:36:06.212,16.3350,100
38166467381529,10:36:06.467,16.3350,100
38168200764037,10:36:08.200,16.3400,100
38168201671137,10:36:08.201,16.3400,100
38178510276006,10:36:18.510,16.3400,77
38181032917047,10:36:21.032,16.3500,92
38181034050822,10:36:21.034,16.3500,8
38181034050822,10:36:21.034,16.3500,217
38181050460038,10:36:21.050,16.3500,100
38181050571272,10:36:21.050,16.3500,83
38211658126649,10:36:51.658,16.3600,100
38211888361391,10:36:51.888,16.3600,100
38211888607069,10:36:51.888,16.3700,100
38211915416572,10:36:51.915,16.3800,36
38211973563471,10:36:51.973,16.3800,64
38213471845371,10:36:53.471,16.3900,100
38214202688402,10:36:54.202,16.4000,100
38214405350382,10:36:54.405,16.4000,100
38239869242271,10:37:19.869,16.3950,96
38240967038831,10:37:20.967,16.3950,4
38240967038831,10:37:20.967,16.3950,1
38240967038831,10:37:20.967,16.4000,95
38240967459067,10:37:20.967,16.4000,5
38255567969390,10:37:35.567,16.4100,100
38255568455233,10:37:35.568,16.4100,109
38255568480484,10:37:35.568,16.4100,109
38255573772487,10:37:35.573,16.4100,82
38255573979642,10:37:35.573,16.4100,100
38255573979642,10:37:35.573,16.4100,100
38255574222821,10:37:35.574,16.4100,86
38255574252267,10:37:35.574,16.4100,14
38255574252267,10:37:35.574,16.4100,14
38255574265371,10:37:35.574,16.4100,86
38263460764234,10:37:43.460,16.4050,100
38263460764234,10:37:43.460,16.4100,14
38263460764234,10:37:43.460,16.4100,100
38263460764234,10:37:43.460,16.4100,86
38263461287484,10:37:43.461,16.4100,100
38282582654282,10:38:02.582,16.4150,100
38282582654282,10:38:02.582,16.4200,200
38282582654282,10:38:02.582,16.4200,114
38300794538831,10:38:20.794,16.4300,100
38300901553862,10:38:20.901,16.4300,100
38315236396019,10:38:35.236,16.4300,100
38315237046445,10:38:35.237,16.4400,100
38315237356110,10:38:35.237,16.4400,100
38315237442098,10:38:35.237,16.4400,100
38315241681061,10:38:35.241,16.4450,100
38315241681061,10:38:35.241,16.4500,200
38317201367422,10:38:37.201,16.4450,100
38317201367422,10:38:37.201,16.4500,100
38317201367422,10:38:37.201,16.4500,100
38317201417692,10:38:37.201,16.4500,300
38317201450360,10:38:37.201,16.4500,300
38317201620851,10:38:37.201,16.4500,200
38317201620851,10:38:37.201,16.4500,100
38322307610035,10:38:42.307,16.4400,100
38322307775403,10:38:42.307,16.4400,100
38322307775403,10:38:42.307,16.4400,100
38322307827264,10:38:42.307,16.4400,200
38322307827264,10:38:42.307,16.4400,400
38322312653889,10:38:42.312,16.4300,100
38330645709914,10:38:50.645,16.4250,100
38330645709914,10:38:50.645,16.4300,100
38330645709914,10:38:50.645,16.4300,100
38330645759581,10:38:50.645,16.4300,100
38353137721913,10:39:13.137,16.4450,100
38353137721913,10:39:13.137,16.4500,100
38353137964694,10:39:13.137,16.4500,100
38353145492899,10:39:13.145,16.4500,100
38355950506467,10:39:15.950,16.4450,100
38432177865743,10:40:32.177,16.4450,100
38432177865743,10:40:32.177,16.4450,1
38432177865743,10:40:32.177,16.4450,1
38432177865743,10:40:32.177,16.4450,1
38432177865743,10:40:32.177,16.4500,100
38432177865743,10:40:32.177,16.4500,100
38432177865743,10:40:32.177,16.4500,100
38432177865743,10:40:32.177,16.4500,100
38432177865743,10:40:32.177,16.4500,100
38432177865743,10:40:32.177,16.4500,97
38432177953884,10:40:32.177,16.4500,103
38432179588277,10:40:32.179,16.4500,100
38432179588277,10:40:32.179,16.4500,100
38432179588277,10:40:32.179,16.4500,100
38432184103114,10:40:32.184,16.4500,100
38432184617789,10:40:32.184,16.4500,175
38432185144468,10:40:32.185,16.4500,25
38432185144468,10:40:32.185,16.4500,100
38432692371063,10:40:32.692,16.4400,100
38432692371063,10:40:32.692,16.4400,100
38432692371063,10:40:32.692,16.4400,200
38432692371063,10:40:32.692,16.4400,187
38432692371063,10:40:32.692,16.4400,1
38432692371063,10:40:32.692,16.4400,100
38432692371063,10:40:32.692,16.4400,100
38432692371063,10:40:32.692,16.4400,100
38432692410425,10:40:32.692,16.4400,100
38435065799880,10:40:35.065,16.4450,99
38435331327172,10:40:35.331,16.4450,1
38462328770928,10:41:02.328,16.4450,100
38462328770928,10:41:02.328,16.4500,200
38462328770928,10:41:02.328,16.4500,100
38462328833189,10:41:02.328,16.4500,100
38463717088654,10:41:03.717,16.4550,14
38464739971659,10:41:04.739,16.4550,86
38474123839265,10:41:14.123,16.4550,100
38474123839265,10:41:14.123,16.4550,1
38474123839265,10:41:14.123,16.4550,1
38474123839265,10:41:14.123,16.4600,298
38474125389027,10:41:14.125,16.4550,100
38474125389027,10:41:14.125,16.4600,2
38474125389027,10:41:14.125,16.4600,100
38474126147719,10:41:14.126,16.4600,100
38475417000206,10:41:15.417,16.4750,100
38484657814086,10:41:24.657,16.4700,100
38490906009316,10:41:30.906,16.4700,100
38491216672235,10:41:31.216,16.4700,100
38491221668790,10:41:31.221,16.4700,100
38491240865299,10:41:31.240,16.4800,100
38491244158006,10:41:31.244,16.4800,22
38492949833140,10:41:32.949,16.5000,11
38495100721154,10:41:35.100,16.5000,200
38495100903994,10:41:35.100,16.5000,9
38495100908567,10:41:35.100,16.5000,80
38495100908567,10:41:35.100,16.5000,20
38495100920585,10:41:35.100,16.5000,200
38495100978636,10:41:35.100,16.5000,80
38495100978636,10:41:35.100,16.5000,20
38495101080390,10:41:35.101,16.5000,200
38495101331101,10:41:35.101,16.5000,80
38495101331101,10:41:35.101,16.5000,120
38495101338611,10:41:35.101,16.5000,180
38495101338611,10:41:35.101,16.5000,320
38495102515972,10:41:35.102,16.5000,100
38495186453933,10:41:35.186,16.4900,100
38495186453933,10:41:35.186,16.4900,200
38508300496011,10:41:48.300,16.4900,100
38508300496011,10:41:48.300,16.4900,100
38513399248546,10:41:53.399,16.4950,100
38513399870095,10:41:53.399,16.5000,100
38513407103436,10:41:53.407,16.5100,100
38513407196988,10:41:53.407,16.5100,100
38513410855541,10:41:53.410,16.5000,100
38513410855541,10:41:53.410,16.5000,100
38521844676871,10:42:01.844,16.4950,100
38525755065961,10:42:05.755,16.4950,100
38525755065961,10:42:05.755,16.5000,100
38525755065961,10:42:05.755,16.5000,100
38525755255257,10:42:05.755,16.5000,82
38533021640628,10:42:13.021,16.4950,100
38533021839745,10:42:13.021,16.5000,100
38533021839745,10:42:13.021,16.5000,100
38533996828412,10:42:13.996,16.4950,100
38533996828412,10:42:13.996,16.5000,100
38547317184220,10:42:27.317,16.4900,100
38547317184220,10:42:27.317,16.4900,500
38547317184220,10:42:27.317,16.4900,400
38547317226773,10:42:27.317,16.4900,200
38547317226773,10:42:27.317,16.4900,100
38547317226773,10:42:27.317,16.4900,100
38547317226773,10:42:27.317,16.4900,36
38547317264806,10:42:27.317,16.4900,64
38549711874909,10:42:29.711,16.4850,99
38551200977258,10:42:31.200,16.4900,100
38559421096712,10:42:39.421,16.4850,1
38559421096712,10:42:39.421,16.4900,99
38560650102592,10:42:40.650,16.4800,100
38560650102592,10:42:40.650,16.4800,100
38560650102592,10:42:40.650,16.4800,194
38560650102592,10:42:40.650,16.4800,6
38560650112826,10:42:40.650,16.4800,94
38560650112826,10:42:40.650,16.4800,100
38560650112826,10:42:40.650,16.4800,206
38560650482370,10:42:40.650,16.4800,94
38560652413032,10:42:40.652,16.4750,100
38560905152211,10:42:40.905,16.4800,100
38563309586090,10:42:43.309,16.4750,100
38563309586090,10:42:43.309,16.4800,133
38563309776915,10:42:43.309,16.4800,100
38563309969450,10:42:43.309,16.4800,100
38574310627824,10:42:54.310,16.4850,100
38574310627824,10:42:54.310,16.4900,101
38574310627824,10:42:54.310,16.4900,100
38574310627824,10:42:54.310,16.4900,100
38575974099133,10:42:55.974,16.4800,100
38575974099133,10:42:55.974,16.4800,100
38575974099133,10:42:55.974,16.4800,100
38575974099133,10:42:55.974,16.4800,100
38575974108986,10:42:55.974,16.4800,100
38575975776687,10:42:55.975,16.4700,35
38585244429327,10:43:05.244,16.4800,100
38599307346765,10:43:19.307,16.4800,100
38599307801633,10:43:19.307,16.4900,100
38599309278956,10:43:19.309,16.4950,100
38599309687942,10:43:19.309,16.5000,100
38600028572226,10:43:20.028,16.4900,100
38600028572226,10:43:20.028,16.4900,100
38600028572226,10:43:20.028,16.4900,100
38606686714429,10:43:26.686,16.4700,100
38606687095419,10:43:26.687,16.4700,62
38616321960855,10:43:36.321,16.4700,100
38616321960855,10:43:36.321,16.4800,100
38616322314420,10:43:36.322,16.4800,100
38640285913543,10:44:00.285,16.4900,24
38647225173899,10:44:07.225,16.4800,100
38647225173899,10:44:07.225,16.4800,100
38647225173899,10:44:07.225,16.4800,200
38647225173899,10:44:07.225,16.4800,100
38647225173899,10:44:07.225,16.4800,171
38647225173899,10:44:07.225,16.4800,129
38647225191328,10:44:07.225,16.4800,37
38647225191328,10:44:07.225,16.4800,63
38652017217789,10:44:12.017,16.4600,1
38655615963056,10:44:15.615,16.4550,76
38657649023380,10:44:17.649,16.4600,100
38657650932217,10:44:17.650,16.4600,100
38657650932217,10:44:17.650,16.4600,100
38661942076013,10:44:21.942,16.4600,100
38661995309141,10:44:21.995,16.4550,100
38666774836764,10:44:26.774,16.4500,100
38666774836764,10:44:26.774,16.4500,100
38666774836764,10:44:26.774,16.4500,100
38666774836764,10:44:26.774,16.4500,400
38666774920832,10:44:26.774,16.4500,400
38666776097411,10:44:26.776,16.4450,100
38666776197942,10:44:26.776,16.4500,27
38666783577103,10:44:26.783,16.4400,100
38666783577103,10:44:26.783,16.4400,100
38666783625825,10:44:26.783,16.4400,100
38666784238849,10:44:26.784,16.4350,100
38666787418254,10:44:26.787,16.4350,100
38666787418254,10:44:26.787,16.4400,94
38667099677528,10:44:27.099,16.4350,100
38667099677528,10:44:27.099,16.4400,300
38667099909122,10:44:27.099,16.4400,27
38667099909122,10:44:27.099,16.4400,44
38667099919009,10:44:27.099,16.4400,29
38667101389933,10:44:27.101,16.4400,100
38667101389933,10:44:27.101,16.4400,100
38667101389933,10:44:27.101,16.4400,100
38670534994484,10:44:30.534,16.4350,100
38670534994484,10:44:30.534,16.4400,44
38670534994484,10:44:30.534,16.4400,56
38670535071627,10:44:30.535,16.4400,100
38670696821949,10:44:30.696,16.4400,100
38670696821949,10:44:30.696,16.4400,100
38670697074822,10:44:30.697,16.4400,100
38670709471939,10:44:30.709,16.4300,500
38670709471939,10:44:30.709,16.4300,100
38674385063182,10:44:34.385,16.4300,200
38674385063182,10:44:34.385,16.4300,100
38677567290596,10:44:37.567,16.4300,300
38677567365798,10:44:37.567,16.4300,300
38677567685059,10:44:37.567,16.4300,200
38677567703298,10:44:37.567,16.4300,100
38677567703298,10:44:37.567,16.4350,100
38677567813917,10:44:37.567,16.4300,100
38677567813917,10:44:37.567,16.4400,100
38677567813917,10:44:37.567,16.4400,100
38677567813917,10:44:37.567,16.4400,100
38677567813917,10:44:37.567,16.4400,100
38677567813917,10:44:37.567,16.4400,100
38677568373855,10:44:37.568,16.4400,100
38677568373855,10:44:37.568,16.4400,100
38677568711322,10:44:37.568,16.4400,100
38677568711322,10:44:37.568,16.4400,100
38677568711322,10:44:37.568,16.4300,100
38677568711322,10:44:37.568,16.4300,100
38677568711322,10:44:37.568,16.4300,89
38677568711322,10:44:37.568,16.4300,100
38678123922635,10:44:38.123,16.4250,100
38678123922635,10:44:38.123,16.4300,200
38679749486655,10:44:39.749,16.4250,100
38679749486655,10:44:39.749,16.4300,100
38679749486655,10:44:39.749,16.4300,400
38679749486655,10:44:39.749,16.4300,100
38682430440967,10:44:42.430,16.4350,100
38690270615508,10:44:50.270,16.4250,100
38690271058864,10:44:50.271,16.4300,100
38690271058864,10:44:50.271,16.4300,300
38690271174245,10:44:50.271,16.4300,300
38690271348379,10:44:50.271,16.4300,100
38690271348379,10:44:50.271,16.4300,200
38690271348379,10:44:50.271,16.4300,100
38690271348379,10:44:50.271,16.4300,100
38690271348379,10:44:50.271,16.4300,200
38690271348379,10:44:50.271,16.4300,100
38690562942705,10:44:50.562,16.4250,100
38690564981708,10:44:50.564,16.4250,100
38690591481867,10:44:50.591,16.4250,100
38690592942800,10:44:50.592,16.4250,100
38690594045377,10:44:50.594,16.4250,100
38690620161523,10:44:50.620,16.4250,100
38690621583640,10:44:50.621,16.4250,100
38690647659497,10:44:50.647,16.4250,100
38690649780225,10:44:50.649,16.4250,100
38690681792850,10:44:50.681,16.4250,100
38691887846104,10:44:51.887,16.4250,100
38691911651204,10:44:51.911,16.4250,100
38691913429377,10:44:51.913,16.4250,100
38691935635265,10:44:51.935,16.4250,100
38691937507557,10:44:51.937,16.4250,100
38691939174450,10:44:51.939,16.4250,100
38691986132098,10:44:51.986,16.4250,100
38691990782739,10:44:51.990,16.4250,100
38691995572894,10:44:51.995,16.4250,100
38692070318087,10:44:52.070,16.4250,100
38692072624881,10:44:52.072,16.4250,100
38692087678777,10:44:52.087,16.4250,100
38692092673636,10:44:52.092,16.4250,100
38692097661174,10:44:52.097,16.4250,100
38692121800011,10:44:52.121,16.4250,100
38692124783739,10:44:52.124,16.4250,100
38692155653936,10:44:52.155,16.4250,100
38692160480076,10:44:52.160,16.4250,100
38692164744853,10:44:52.164,16.4250,100
38692166147384,10:44:52.166,16.4250,100
38692172001107,10:44:52.172,16.4250,100
38692192369318,10:44:52.192,16.4250,100
38692216891295,10:44:52.216,16.4250,100
38692218823282,10:44:52.218,16.4250,100
38692221791907,10:44:52.221,16.4250,100
38692223872827,10:44:52.223,16.4250,100
38692256282663,10:44:52.256,16.4250,100
38692261102449,10:44:52.261,16.4250,100
38692265737233,10:44:52.265,16.4250,100
38692367769574,10:44:52.367,16.4250,100
38694951042887,10:44:54.951,16.4250,100
38694951042887,10:44:54.951,16.4300,100
38694951042887,10:44:54.951,16.4300,100
38694951130155,10:44:54.951,16.4300,100
38694951690025,10:44:54.951,16.4300,100
38713009841450,10:45:13.009,16.4300,100
38713009841450,10:45:13.009,16.4400,200
38713009922668,10:45:13.009,16.4400,100
38714409969815,10:45:14.409,16.4400,1
38714409970618,10:45:14.409,16.4400,1
38714409973833,10:45:14.409,16.4400,1
38714409975066,10:45:14.409,16.4400,1
38714416531212,10:45:14.416,16.4400,100
38714418856965,10:45:14.418,16.4400,100
38714420938946,10:45:14.420,16.4400,100
38721481768900,10:45:21.481,16.4400,100
38721481768900,10:45:21.481,16.4400,100
38734728716683,10:45:34.728,16.4800,100
38739047812148,10:45:39.047,16.4900,100
38739047812148,10:45:39.047,16.4900,54
38746836786085,10:45:46.836,16.4900,100
38749034457394,10:45:49.034,16.4900,400
38749034457394,10:45:49.034,16.4900,200
38749034457394,10:45:49.034,16.4900,96
38749034688819,10:45:49.034,16.4900,4
38749034688819,10:45:49.034,16.4900,1
38749034965056,10:45:49.034,16.4900,99
38749034965056,10:45:49.034,16.4900,500
38749034965056,10:45:49.034,16.4900,5
38749036067306,10:45:49.036,16.4850,75
38764241209449,10:46:04.241,16.4850,25
38764241209449,10:46:04.241,16.4900,100
38764241209449,10:46:04.241,16.4900,100
38764241209449,10:46:04.241,16.4900,25
38772469996931,10:46:12.469,16.5200,100
38788436137860,10:46:28.436,16.5250,1
38788436137860,10:46:28.436,16.5250,1
38788436137860,10:46:28.436,16.5250,97
38800869272117,10:46:40.869,16.5400,205
38800871994736,10:46:40.871,16.5500,100
38800872158527,10:46:40.872,16.5500,100
38800877228364,10:46:40.877,16.5550,100
38800877228364,10:46:40.877,16.5600,103
38800889395513,10:46:40.889,16.5500,100
38800900033040,10:46:40.900,16.5500,100
38800900154618,10:46:40.900,16.5500,100
38800900208893,10:46:40.900,16.5500,100
38800900208893,10:46:40.900,16.5500,100
38803554538904,10:46:43.554,16.5500,100
38803554538904,10:46:43.554,16.5500,100
38803554593061,10:46:43.554,16.5500,81
38803554593061,10:46:43.554,16.5500,100
38803554593061,10:46:43.554,16.5500,919
38803554618470,10:46:43.554,16.5500,81
38803555898687,10:46:43.555,16.5500,100
38803555898687,10:46:43.555,16.5500,575
38803587308797,10:46:43.587,16.5400,100
38833029721434,10:47:13.029,16.5250,100
38833029721434,10:47:13.029,16.5300,200
38833029745975,10:47:13.029,16.5300,8
38833029807239,10:47:13.029,16.5300,92
38833031244433,10:47:13.031,16.5300,100
38835559351008,10:47:15.559,16.5250,100
38869800935663,10:47:49.800,16.5200,195
38869800935663,10:47:49.800,16.5200,1
38869800935663,10:47:49.800,16.5200,4
38869801278984,10:47:49.801,16.5200,196
38869801278984,10:47:49.801,16.5200,268
38869801282191,10:47:49.801,16.5200,32
38869801282191,10:47:49.801,16.5200,100
38882078210997,10:48:02.078,16.5000,100
38887705266132,10:48:07.705,16.4950,99
38890543084986,10:48:10.543,16.4900,100
38894592046871,10:48:14.592,16.4900,300
38894592567075,10:48:14.592,16.4900,100
38901949172391,10:48:21.949,16.4650,100
38901949172391,10:48:21.949,16.4700,92
38901949172391,10:48:21.949,16.4700,208
38901949403891,10:48:21.949,16.4700,100
38910761151005,10:48:30.761,16.4800,200
38910763526158,10:48:30.763,16.4800,100
38954434838751,10:49:14.434,16.4900,68
38961283051454,10:49:21.283,16.4900,32
38961283051454,10:49:21.283,16.4900,1
38961283051454,10:49:21.283,16.4900,1
38961283051454,10:49:21.283,16.4900,300
38961283051454,10:49:21.283,16.5000,66
38961283139078,10:49:21.283,16.5000,26
38961283139078,10:49:21.283,16.5000,208
38961283139078,10:49:21.283,16.5000,100
38968800847557,10:49:28.800,16.4850,200
38968800847557,10:49:28.800,16.4850,100
39004253799768,10:50:04.253,16.4800,183
39004253799768,10:50:04.253,16.4800,100
39004253799768,10:50:04.253,16.4800,500
39004253799768,10:50:04.253,16.4800,500
39004253799768,10:50:04.253,16.4800,500
39004253799768,10:50:04.253,16.4800,100
39004257770317,10:50:04.257,16.4650,100
39010056115073,10:50:10.056,16.4650,200
39012532863246,10:50:12.532,16.4600,100
39012532863246,10:50:12.532,16.4600,100
39012533022670,10:50:12.533,16.4600,200
39012533022670,10:50:12.533,16.4600,819
39012533022670,10:50:12.533,16.4600,100
39018187932518,10:50:18.187,16.4550,100
39019443204895,10:50:19.443,16.4600,100
39019443204895,10:50:19.443,16.4600,100
39019443204895,10:50:19.443,16.4600,100
39019443277494,10:50:19.443,16.4600,100
39019443277494,10:50:19.443,16.4600,100
39019443277494,10:50:19.443,16.4600,200
39019443277494,10:50:19.443,16.4600,200
39019443277494,10:50:19.443,16.4600,92
39019443277494,10:50:19.443,16.4600,108
39019443277494,10:50:19.443,16.4600,100
39019443277494,10:50:19.443,16.4600,100
39019443357647,10:50:19.443,16.4700,27
39039790475547,10:50:39.790,16.4700,100
39039790475547,10:50:39.790,16.4700,100
39057994520161,10:50:57.994,16.4750,100
39060845045449,10:51:00.845,16.4750,100
39060845069362,10:51:00.845,16.4800,100
39060845148831,10:51:00.845,16.4800,100
39060871764467,10:51:00.871,16.4900,100
39064022460800,10:51:04.022,16.4900,100
39064022460800,10:51:04.022,16.4900,500
39064022460800,10:51:04.022,16.4900,100
39084793067944,10:51:24.793,16.4850,100
39092932061624,10:51:32.932,16.4850,1
39092932061624,10:51:32.932,16.4850,1
39092932061624,10:51:32.932,16.4850,1
39092932061624,10:51:32.932,16.4850,97
39092934714263,10:51:32.934,16.4850,3
39092961762640,10:51:32.961,16.4850,100
39092963359813,10:51:32.963,16.4850,100
39092988237449,10:51:32.988,16.4850,100
39092990702875,10:51:32.990,16.4850,100
39093104159739,10:51:33.104,16.4850,100
39094679747420,10:51:34.679,16.4900,21
39094680212155,10:51:34.680,16.4900,79
39120052187374,10:52:00.052,16.5000,100
39120756508895,10:52:00.756,16.5000,100
39122144148306,10:52:02.144,16.5000,100
39137868756749,10:52:17.868,16.5000,100
39137875850579,10:52:17.875,16.5000,100
39150050385274,10:52:30.050,16.4900,168
39150050385274,10:52:30.050,16.4900,100
39150050385274,10:52:30.050,16.4900,300
39150050385274,10:52:30.050,16.4900,100
39150050677842,10:52:30.050,16.4900,100
39150050692987,10:52:30.050,16.4900,100
39150050704141,10:52:30.050,16.4900,100
39156587394680,10:52:36.587,16.5000,100
39156589015074,10:52:36.589,16.5000,100
39156595014453,10:52:36.595,16.5000,200
39176091020064,10:52:56.091,16.5000,100
39182731516284,10:53:02.731,16.5100,1
39182731516284,10:53:02.731,16.5100,1
39232956200234,10:53:52.956,16.5100,100
39243346346636,10:54:03.346,16.5100,100
39244362977951,10:54:04.362,16.5100,2
39246553952829,10:54:06.553,16.5150,1
39248314654678,10:54:08.314,16.5200,100
39259840197683,10:54:19.840,16.5300,100
39265244479286,10:54:25.244,16.5200,100
39265244479286,10:54:25.244,16.5200,100
39265244479286,10:54:25.244,16.5200,1100
39265244479286,10:54:25.244,16.5200,100
39265244479286,10:54:25.244,16.5200,100
39280927113642,10:54:40.927,16.5150,100
39281002601872,10:54:41.002,16.5150,100
39281062985064,10:54:41.062,16.5150,100
39281081217108,10:54:41.081,16.5200,100
39281155319526,10:54:41.155,16.5300,100
39311497506057,10:55:11.497,16.5300,100
39311506360095,10:55:11.506,16.5300,100
39311514356506,10:55:11.514,16.5300,100
39313695938058,10:55:13.695,16.5300,100
39313695938058,10:55:13.695,16.5300,100
39319244887417,10:55:19.244,16.5400,100
39319255210211,10:55:19.255,16.5300,100
39319255210211,10:55:19.255,16.5300,29
39319255324722,10:55:19.255,16.5300,72
39371045043546,10:56:11.045,16.5600,10
39387036478941,10:56:27.036,16.5500,100
39387036478941,10:56:27.036,16.5500,100
39387036478941,10:56:27.036,16.5500,100
39387036478941,10:56:27.036,16.5500,100
39387036478941,10:56:27.036,16.5500,100
39387036478941,10:56:27.036,16.5500,200
39397957478983,10:56:37.957,16.5500,88
39416390963176,10:56:56.390,16.5500,100
39416390963176,10:56:56.390,16.5500,100
39416391139340,10:56:56.391,16.5500,100
39416391483115,10:56:56.391,16.5500,100
39416391483115,10:56:56.391,16.5500,100
39416391483115,10:56:56.391,16.5600,100
39416391483115,10:56:56.391,16.5600,100
39422304991683,10:57:02.304,16.5600,100
39431023382907,10:57:11.023,16.5700,100
39435132639564,10:57:15.132,16.5700,100
39435132639564,10:57:15.132,16.5700,100
39435132639564,10:57:15.132,16.5700,100
39435132639564,10:57:15.132,16.5700,100
39435132639564,10:57:15.132,16.5700,100
39435132730026,10:57:15.132,16.5700,200
39435138217955,10:57:15.138,16.5600,40
39435138217955,10:57:15.138,16.5600,100
39435138217955,10:57:15.138,16.5600,60
39435138284249,10:57:15.138,16.5600,40
39435138284249,10:57:15.138,16.5600,100
39435138284249,10:57:15.138,16.5600,400
39438229167206,10:57:18.229,16.5600,100
39438229353439,10:57:18.229,16.5600,100
39440741821436,10:57:20.741,16.5500,100
39442128757228,10:57:22.128,16.5500,100
39467124206804,10:57:47.124,16.5400,100
39467124267438,10:57:47.124,16.5400,62
39467124267438,10:57:47.124,16.5400,38
39467124299622,10:57:47.124,16.5400,62
39467127189706,10:57:47.127,16.5300,100
39471119593203,10:57:51.119,16.5400,65
39471119716924,10:57:51.119,16.5400,16
39497389707579,10:58:17.389,16.5500,100
39538570807109,10:58:58.570,16.5500,100
39538570807109,10:58:58.570,16.5500,100
39538570807109,10:58:58.570,16.5500,100
39538570807109,10:58:58.570,16.5500,100
39538570854174,10:58:58.570,16.5500,77
39538570854174,10:58:58.570,16.5500,1
39543545977871,10:59:03.545,16.5400,100
39580000401391,10:59:40.000,16.5400,100
39580000401391,10:59:40.000,16.5400,100
39580000441420,10:59:40.000,16.5400,500
39581028481334,10:59:41.028,16.5300,100
39581028481334,10:59:41.028,16.5300,100
39581028481334,10:59:41.028,16.5300,100
39581028481334,10:59:41.028,16.5300,164
39581028481334,10:59:41.028,16.5300,36
39581028548202,10:59:41.028,16.5300,64
39611393539434,11:00:11.393,16.5300,1
39611393539434,11:00:11.393,16.5400,99
39611393643893,11:00:11.393,16.5400,1
39627555159730,11:00:27.555,16.5600,100
39636378031600,11:00:36.378,16.5700,100
39636878035334,11:00:36.878,16.5700,100
39637378031193,11:00:37.378,16.5700,100
39637878030682,11:00:37.878,16.5700,100
39638378031669,11:00:38.378,16.5700,100
39642280042443,11:00:42.280,16.5700,100
39661037438389,11:01:01.037,16.5700,100
39663479778232,11:01:03.479,16.5650,100
39663506205544,11:01:03.506,16.5650,100
39663916229507,11:01:03.916,16.5750,100
39666800413276,11:01:06.800,16.5700,100
39666801235508,11:01:06.801,16.5600,1
39671116109795,11:01:11.116,16.5600,1
39671116109795,11:01:11.116,16.5600,100
39671116109795,11:01:11.116,16.5600,194
39671116109795,11:01:11.116,16.5600,5
39671116187977,11:01:11.116,16.5600,95
39671125164923,11:01:11.125,16.5500,200
39671125164923,11:01:11.125,16.5500,100
39671125164923,11:01:11.125,16.5500,100
39671125164923,11:01:11.125,16.5500,100
39671727386366,11:01:11.727,16.5450,1
39671727386366,11:01:11.727,16.5500,99
39671968265140,11:01:11.968,16.5500,1
39671968265140,11:01:11.968,16.5500,47
39671974840349,11:01:11.974,16.5500,100
39671974876049,11:01:11.974,16.5500,37
39682054206201,11:01:22.054,16.5500,100
39682511278493,11:01:22.511,16.5500,100
39709978777742,11:01:49.978,16.5500,100
39712024281913,11:01:52.024,16.5500,68
39726354405879,11:02:06.354,16.5500,100
39726361864631,11:02:06.361,16.5500,100
39726365907501,11:02:06.365,16.5500,100
39726365907501,11:02:06.365,16.5500,100
39727026990342,11:02:07.026,16.5500,100
39727032898452,11:02:07.032,16.5500,100
39749282216888,11:02:29.282,16.5500,1
39749282216888,11:02:29.282,16.5600,100
39749282216888,11:02:29.282,16.5600,99
39749282302511,11:02:29.282,16.5600,1
39751206038581,11:02:31.206,16.5600,100
39751206095839,11:02:31.206,16.5600,20
39751206189191,11:02:31.206,16.5700,100
39752550884219,11:02:32.550,16.5600,100
39752550884219,11:02:32.550,16.5600,275
39752555362737,11:02:32.555,16.5500,100
39752555419227,11:02:32.555,16.5500,100
39752557413584,11:02:32.557,16.5500,100
39752557413584,11:02:32.557,16.5500,200
39752561403042,11:02:32.561,16.5500,100
39752561403042,11:02:32.561,16.5500,100
39754085497552,11:02:34.085,16.5500,100
39754085497552,11:02:34.085,16.5500,100
39754085567553,11:02:34.085,16.5500,100
39754085567553,11:02:34.085,16.5500,100
39754087319244,11:02:34.087,16.5600,100
39754088201377,11:02:34.088,16.5600,100
39754090054971,11:02:34.090,16.5600,100
39754091489055,11:02:34.091,16.5600,100
39754093297301,11:02:34.093,16.5600,100
39754095715767,11:02:34.095,16.5600,100
39754096211743,11:02:34.096,16.5600,100
39754096307928,11:02:34.096,16.5500,100
39754097173629,11:02:34.097,16.5500,100
39754097173629,11:02:34.097,16.5500,30
39754100165456,11:02:34.100,16.5500,100
39754100233618,11:02:34.100,16.5500,100
39754100233618,11:02:34.100,16.5500,100
39758000012492,11:02:38.000,16.5500,100
39758000012492,11:02:38.000,16.5500,100
39758002994718,11:02:38.002,16.5600,100
39769053521491,11:02:49.053,16.5500,100
39769053521491,11:02:49.053,16.5500,300
39770762575890,11:02:50.762,16.5400,200
39770762575890,11:02:50.762,16.5400,187
39770762575890,11:02:50.762,16.5400,200
39770762575890,11:02:50.762,16.5400,13
39770762647909,11:02:50.762,16.5400,87
39770793154165,11:02:50.793,16.5400,100
39799538883865,11:03:19.538,16.5600,100
39804956632298,11:03:24.956,16.5500,1
39804956632882,11:03:24.956,16.5500,1
39810290452739,11:03:30.290,16.5500,198
39810290452739,11:03:30.290,16.5500,100
39810290452739,11:03:30.290,16.5500,2
39810290507737,11:03:30.290,16.5500,98
39810290507737,11:03:30.290,16.5500,400
39831728343368,11:03:51.728,16.5450,100
39849006957500,11:04:09.006,16.5450,200
39852912513003,11:04:12.912,16.5450,200
39852913628120,11:04:12.913,16.5450,1
39852913628120,11:04:12.913,16.5500,8
39852915322832,11:04:12.915,16.5450,192
39856137338970,11:04:16.137,16.5500,50
39859506533479,11:04:19.506,16.5400,100
39859506533479,11:04:19.506,16.5400,162
39859506533479,11:04:19.506,16.5400,100
39859506533479,11:04:19.506,16.5400,100
39868713286823,11:04:28.713,16.5400,42
39869296542565,11:04:29.296,16.5400,100
39886780167113,11:04:46.780,16.5400,100
39927883189521,11:05:27.883,16.5400,500
39927883634086,11:05:27.883,16.5400,100
39927884199736,11:05:27.884,16.5450,200
39935711643439,11:05:35.711,16.5450,100
39968310358812,11:06:08.310,16.5400,27
39968310372188,11:06:08.310,16.5400,73
39968310372188,11:06:08.310,16.5400,100
39968310372188,11:06:08.310,16.5400,34
39968310380768,11:06:08.310,16.5400,114
39968310386061,11:06:08.310,16.5400,38
39969358641297,11:06:09.358,16.5300,200
39969358641297,11:06:09.358,16.5300,100
39969362643107,11:06:09.362,16.5300,11
40008140841668,11:06:48.140,16.5300,100
40017313949615,11:06:57.313,16.5300,100
40025992261672,11:07:05.992,16.5400,99
40025992299068,11:07:05.992,16.5400,1
40025992717214,11:07:05.992,16.5400,200
40025992863465,11:07:05.992,16.5400,200
40025992863465,11:07:05.992,16.5400,200
40025992863465,11:07:05.992,16.5400,300
40025992863465,11:07:05.992,16.5400,100
40025992863465,11:07:05.992,16.5400,100
40025992863465,11:07:05.992,16.5400,100
40025992863465,11:07:05.992,16.5400,100
40025992863465,11:07:05.992,16.5400,100
40025993100689,11:07:05.993,16.5400,100
40025993117794,11:07:05.993,16.5400,100
40027126108783,11:07:07.126,16.5200,300
40081897172075,11:08:01.897,16.5200,100
40081897172075,11:08:01.897,16.5200,169
40081897172075,11:08:01.897,16.5200,100
40082138131861,11:08:02.138,16.5200,100
40082138131861,11:08:02.138,16.5200,25
40082138190774,11:08:02.138,16.5200,75
40089036958797,11:08:09.036,16.5300,100
40089037131968,11:08:09.037,16.5300,100
40089037224835,11:08:09.037,16.5300,100
40093201570764,11:08:13.201,16.5300,100
40093201570764,11:08:13.201,16.5300,100
40106129604902,11:08:26.129,16.5300,100
40106129663647,11:08:26.129,16.5300,100
40107390383235,11:08:27.390,16.5300,2
40118390256914,11:08:38.390,16.5300,298
40118390420159,11:08:38.390,16.5300,100
40118390423067,11:08:38.390,16.5300,100
40120480077143,11:08:40.480,16.5300,100
40120480077143,11:08:40.480,16.5300,100
40120480234902,11:08:40.480,16.5300,100
40120511916423,11:08:40.511,16.5300,138
40160443190096,11:09:20.443,16.5300,100
40160443259432,11:09:20.443,16.5400,100
40160446448504,11:09:20.446,16.5200,100
40160446525685,11:09:20.446,16.5200,100
40164765328822,11:09:24.765,16.5300,100
40164765328822,11:09:24.765,16.5300,100
40164765328822,11:09:24.765,16.5300,100
40164765411515,11:09:24.765,16.5300,100
40165468883499,11:09:25.468,16.5400,100
40165468883499,11:09:25.468,16.5400,33
40170921572672,11:09:30.921,16.5400,67
40170921769075,11:09:30.921,16.5400,100
40170921771835,11:09:30.921,16.5400,100
40170927033392,11:09:30.927,16.5400,1
40173518992590,11:09:33.518,16.5400,1
40192325497220,11:09:52.325,16.5400,99
40192325497220,11:09:52.325,16.5400,1
40192325568550,11:09:52.325,16.5400,100
40192325585928,11:09:52.325,16.5400,99
40192325585928,11:09:52.325,16.5400,1
40200913966161,11:10:00.913,16.5400,200
40200913966161,11:10:00.913,16.5400,299
40207544273854,11:10:07.544,16.5350,1
40207544273854,11:10:07.544,16.5400,99
40224780132908,11:10:24.780,16.5300,200
40224780132908,11:10:24.780,16.5300,100
40224780132908,11:10:24.780,16.5300,100
40224780132908,11:10:24.780,16.5300,100
40224784797036,11:10:24.784,16.5200,100
40224784797036,11:10:24.784,16.5200,100
40224790654843,11:10:24.790,16.5100,100
40224790654843,11:10:24.790,16.5100,300
40224800772880,11:10:24.800,16.5100,5
40224800826431,11:10:24.800,16.5100,95
40224800826431,11:10:24.800,16.5100,200
40224803461253,11:10:24.803,16.5200,100
40224803461253,11:10:24.803,16.5200,200
40224803461253,11:10:24.803,16.5200,100
40224987731502,11:10:24.987,16.5200,104
40229462935815,11:10:29.462,16.5100,100
40229467022099,11:10:29.467,16.5000,100
40230489821431,11:10:30.489,16.4900,300
40230489821431,11:10:30.489,16.4900,100
40230543148690,11:10:30.543,16.4900,100
40232522146312,11:10:32.522,16.5000,100
40232524075910,11:10:32.524,16.5000,300
40232524075910,11:10:32.524,16.5000,100
40232524075910,11:10:32.524,16.5000,100
40232524075910,11:10:32.524,16.5000,100
40232524075910,11:10:32.524,16.5000,100
40240252740771,11:10:40.252,16.4900,100
40257194765439,11:10:57.194,16.4700,1
40257194765439,11:10:57.194,16.4700,1
40265528510310,11:11:05.528,16.4800,100
40265528566545,11:11:05.528,16.4800,200
40270112836030,11:11:10.112,16.4900,100
40270112836030,11:11:10.112,16.4900,200
40270112899255,11:11:10.112,16.4900,100
40270112917203,11:11:10.112,16.4900,100
40270112931303,11:11:10.112,16.4900,72
40270795331256,11:11:10.795,16.4900,283
40270795384719,11:11:10.795,16.4900,17
40283172651177,11:11:23.172,16.5000,100
40291696699971,11:11:31.696,16.5000,200
40291698274025,11:11:31.698,16.4900,1
40294277916134,11:11:34.277,16.5000,100
40294834011759,11:11:34.834,16.4900,99
40317430065939,11:11:57.430,16.5000,100
40317686179042,11:11:57.686,16.5000,100
40319578729434,11:11:59.578,16.5100,100
40320014297899,11:12:00.014,16.5000,100
40320014376390,11:12:00.014,16.5000,100
40331262879655,11:12:11.262,16.5000,100
40332967661032,11:12:12.967,16.5100,100
40334175635337,11:12:14.175,16.5300,100
40334175635337,11:12:14.175,16.5200,100
40334178671215,11:12:14.178,16.5200,100
40334181484519,11:12:14.181,16.5200,65
40334183877762,11:12:14.183,16.5100,100
40334184012030,11:12:14.184,16.5100,100
40334186256689,11:12:14.186,16.5100,100
40334190303163,11:12:14.190,16.5200,35
40334279404502,11:12:14.279,16.5200,100
40365556018686,11:12:45.556,16.5100,100
40365556018686,11:12:45.556,16.5100,100
40393145344165,11:13:13.145,16.5150,100
40406433314563,11:13:26.433,16.5200,100
40415130135666,11:13:35.130,16.5200,100
40415130295235,11:13:35.130,16.5200,100
40449873636520,11:14:09.873,16.5400,200
40449873636520,11:14:09.873,16.5400,41
40449873641603,11:14:09.873,16.5400,107
40449873838590,11:14:09.873,16.5400,159
40449873865891,11:14:09.873,16.5400,113
40449873882168,11:14:09.873,16.5400,107
40449940681623,11:14:09.940,16.5500,100
40449941852543,11:14:09.941,16.5600,100
40453200275515,11:14:13.200,16.5500,100
40453212348986,11:14:13.212,16.5500,100
40453212598218,11:14:13.212,16.5500,100
40453212598218,11:14:13.212,16.5500,100
40453212598218,11:14:13.212,16.5500,100
40453214320620,11:14:13.214,16.5500,100
40473542871234,11:14:33.542,16.5500,100
40505684871652,11:15:05.684,16.5500,100
40505684871652,11:15:05.684,16.5500,100
40516308483839,11:15:16.308,16.5600,100
40516308483839,11:15:16.308,16.5600,100
40516308483839,11:15:16.308,16.5600,200
40516308962386,11:15:16.308,16.5600,100
40526614926959,11:15:26.614,16.5500,99
40526614926959,11:15:26.614,16.5500,200
40545452073217,11:15:45.452,16.5500,100
40545452292345,11:15:45.452,16.5500,100
40545452473614,11:15:45.452,16.5500,100
40545459850603,11:15:45.459,16.5600,100
40545459850603,11:15:45.459,16.5600,100
40545463244299,11:15:45.463,16.5500,100
40545463244299,11:15:45.463,16.5500,100
40545464870235,11:15:45.464,16.5500,100
40545474202218,11:15:45.474,16.5500,1
40549755096691,11:15:49.755,16.5500,100
40564481274616,11:16:04.481,16.5600,100
40564490427664,11:16:04.490,16.5600,100
40564496587135,11:16:04.496,16.5500,1
40570784749343,11:16:10.784,16.5600,100
40576523282700,11:16:16.523,16.5500,1
40576523282700,11:16:16.523,16.5500,1
40576523282700,11:16:16.523,16.5600,149
40576523282700,11:16:16.523,16.5600,98
40576523383300,11:16:16.523,16.5600,2
40576534273191,11:16:16.534,16.5600,200
40576537955259,11:16:16.537,16.5500,100
40576549597392,11:16:16.549,16.5500,1
40587643066604,11:16:27.643,16.5600,100
40587652844742,11:16:27.652,16.5600,200
40587652844742,11:16:27.652,16.5600,100
40587653275589,11:16:27.653,16.5600,100
40587653293567,11:16:27.653,16.5600,100
40587653293567,11:16:27.653,16.5700,100
40587653306474,11:16:27.653,16.5600,100
40587654194246,11:16:27.654,16.5700,100
40587655144790,11:16:27.655,16.5600,200
40587655144790,11:16:27.655,16.5600,100
40587660359431,11:16:27.660,16.5500,100
40592066580108,11:16:32.066,16.5500,100
40598054988801,11:16:38.054,16.5400,173
40598054988801,11:16:38.054,16.5400,24
40598054988801,11:16:38.054,16.5400,100
40598054988801,11:16:38.054,16.5400,100
40599201450898,11:16:39.201,16.5400,100
40606464278558,11:16:46.464,16.5400,100
40610058953032,11:16:50.058,16.5300,100
40610058953032,11:16:50.058,16.5300,83
40610058953032,11:16:50.058,16.5300,100
40610058953032,11:16:50.058,16.5300,100
40643259016540,11:17:23.259,16.5300,400
40663740905479,11:17:43.740,16.5300,100
40745823118600,11:19:05.823,16.5300,1
40745823118600,11:19:05.823,16.5300,1
40745823118600,11:19:05.823,16.5300,1
40745823118600,11:19:05.823,16.5300,1
40745823118600,11:19:05.823,16.5400,96
40745823230948,11:19:05.823,16.5400,4
40749324553852,11:19:09.324,16.5400,100
40749324553852,11:19:09.324,16.5400,100
40751200836989,11:19:11.200,16.5400,100
40766977923024,11:19:26.977,16.5400,100
40767202593544,11:19:27.202,16.5400,100
40767202593544,11:19:27.202,16.5400,100
40779553425227,11:19:39.553,16.5400,100
40779557636828,11:19:39.557,16.5400,100
40779560209236,11:19:39.560,16.5400,100
40787087546557,11:19:47.087,16.5300,73
40787087666706,11:19:47.087,16.5300,114
40787087719433,11:19:47.087,16.5300,113
40823919103648,11:20:23.919,16.5300,100
40833557315810,11:20:33.557,16.5300,100
40833557315810,11:20:33.557,16.5300,100
40838236743905,11:20:38.236,16.5300,1
40838236743905,11:20:38.236,16.5300,100
40838236743905,11:20:38.236,16.5300,99
40840760472807,11:20:40.760,16.5200,1
40845717621860,11:20:45.717,16.5200,199
40845717621860,11:20:45.717,16.5200,100
40845717621860,11:20:45.717,16.5200,100
40845748636117,11:20:45.748,16.5100,100
40845748636117,11:20:45.748,16.5100,39
40849551441444,11:20:49.551,16.5100,100
40861338705489,11:21:01.338,16.5200,100
40861338705489,11:21:01.338,16.5200,100
40861338705489,11:21:01.338,16.5200,800
40862287013432,11:21:02.287,16.5300,100
40864069404739,11:21:04.069,16.5200,100
40877059060706,11:21:17.059,16.5100,100
40877060527683,11:21:17.060,16.5100,100
40877079402504,11:21:17.079,16.5100,100
40882128916201,11:21:22.128,16.5300,100
40882128916201,11:21:22.128,16.5300,100
40882129983150,11:21:22.129,16.5300,100
40921558227810,11:22:01.558,16.5400,100
40921558676885,11:22:01.558,16.5400,100
40934810498640,11:22:14.810,16.5300,100
40934810498640,11:22:14.810,16.5300,500
40935016596593,11:22:15.016,16.5300,100
40935016596593,11:22:15.016,16.5300,100
40939518665370,11:22:19.518,16.5300,100
40939518711556,11:22:19.518,16.5300,300
40939521288798,11:22:19.521,16.5300,100
40971871217986,11:22:51.871,16.5100,200
40971871217986,11:22:51.871,16.5100,100
40971871217986,11:22:51.871,16.5100,100
40971871217986,11:22:51.871,16.5000,100
40974391547166,11:22:54.391,16.5000,100
40974398535717,11:22:54.398,16.5000,100
40975656186981,11:22:55.656,16.5000,100
40975656186981,11:22:55.656,16.5000,100
40981820206689,11:23:01.820,16.5000,100
40981820206689,11:23:01.820,16.5000,100
40981956139885,11:23:01.956,16.5000,200
41001200836370,11:23:21.200,16.5000,100
41004202597585,11:23:24.202,16.5000,100
41004202671928,11:23:24.202,16.5000,400
41024611056879,11:23:44.611,16.5100,100
41030648500787,11:23:50.648,16.5000,100
41055740689810,11:24:15.740,16.5100,1
41055740689810,11:24:15.740,16.5200,99
41055740769410,11:24:15.740,16.5200,1
41055740784758,11:24:15.740,16.5200,1
41065934504497,11:24:25.934,16.5200,1
41065934504497,11:24:25.934,16.5300,99
41065934585196,11:24:25.934,16.5300,1
41085054324935,11:24:45.054,16.5300,100
41090809698394,11:24:50.809,16.5350,100
41092200880216,11:24:52.200,16.5300,11
41092200880216,11:24:52.200,16.5300,200
41094439496305,11:24:54.439,16.5200,100
41096132706354,11:24:56.132,16.5200,100
41096962861204,11:24:56.962,16.5200,11
41101110724705,11:25:01.110,16.5200,89
41143248195960,11:25:43.248,16.5100,100
41143248253401,11:25:43.248,16.5100,100
41143248288399,11:25:43.248,16.5100,40
41143249416157,11:25:43.249,16.5000,100
41143249714530,11:25:43.249,16.5000,1
41143249859243,11:25:43.249,16.5000,1
41143249865566,11:25:43.249,16.5000,1
41143250474077,11:25:43.250,16.5000,1
41157870782403,11:25:57.870,16.5000,100
41158948379053,11:25:58.948,16.5000,100
41188831722506,11:26:28.831,16.5000,378
41188831722506,11:26:28.831,16.4900,22
41188832905042,11:26:28.832,16.4900,78
41188832905042,11:26:28.832,16.4900,100
41189313662032,11:26:29.313,16.4900,100
41189313820904,11:26:29.313,16.4900,100
41189313844132,11:26:29.313,16.4900,41
41251245850624,11:27:31.245,16.5000,100
41252926963779,11:27:32.926,16.5000,100
41307552346302,11:28:27.552,16.5000,100
41330317889593,11:28:50.317,16.5300,100
41330439372708,11:28:50.439,16.5300,100
41332048452476,11:28:52.048,16.5300,600
41336946153291,11:28:56.946,16.5100,35
41336946153291,11:28:56.946,16.5100,65
41336946201502,11:28:56.946,16.5100,35
41336946201502,11:28:56.946,16.5100,100
41336947382624,11:28:56.947,16.5000,2
41336947382624,11:28:56.947,16.5000,98
41336947496011,11:28:56.947,16.5000,91
41336947496011,11:28:56.947,16.5000,9
41336948719879,11:28:56.948,16.5000,100
41336952236471,11:28:56.952,16.5000,91
41338201006830,11:28:58.201,16.5000,100
41338201359812,11:28:58.201,16.5000,100
41338206510640,11:28:58.206,16.5000,300
41347552394247,11:29:07.552,16.4900,100
41347552394247,11:29:07.552,16.4900,100
41364299849023,11:29:24.299,16.4900,51
41364300345804,11:29:24.300,16.4900,16
41364300392769,11:29:24.300,16.4900,33
41364314229612,11:29:24.314,16.4900,100
41364314229612,11:29:24.314,16.4900,1
41371310169204,11:29:31.310,16.4800,100
41371310169204,11:29:31.310,16.4800,100
41383291993548,11:29:43.291,16.4900,100
41407298482275,11:30:07.298,16.4900,100
41407309461381,11:30:07.309,16.4900,100
41430756899571,11:30:30.756,16.5000,100
41430757333953,11:30:30.757,16.5000,100
41430929709492,11:30:30.929,16.4900,3
41430930363040,11:30:30.930,16.4900,100
41430930999995,11:30:30.930,16.4900,100
41432177502081,11:30:32.177,16.4900,100
41432183976584,11:30:32.183,16.5000,100
41460220674542,11:31:00.220,16.4900,118
41460220674542,11:31:00.220,16.4900,200
41467162881825,11:31:07.162,16.4900,100
41468673854095,11:31:08.673,16.4900,1
41514586887357,11:31:54.586,16.4900,100
41514586887357,11:31:54.586,16.4900,100
41514589932469,11:31:54.589,16.4900,100
41535597869368,11:32:15.597,16.4900,100
41541971211023,11:32:21.971,16.4900,100
41589574452219,11:33:09.574,16.5000,100
41589574452219,11:33:09.574,16.5000,100
41589574452219,11:33:09.574,16.5000,200
41589582096752,11:33:09.582,16.4900,100
41645030374956,11:34:05.030,16.4900,100
41645030374956,11:34:05.030,16.4900,300
41645033297190,11:34:05.033,16.4800,100
41697986048776,11:34:57.986,16.4800,100
41705675495326,11:35:05.675,16.4800,30
41705675907813,11:35:05.675,16.4800,70
41793646628193,11:36:33.646,16.4700,100
41793646628193,11:36:33.646,16.4700,100
41793646628193,11:36:33.646,16.4700,100
41793646628193,11:36:33.646,16.4700,100
41793646741583,11:36:33.646,16.4700,100
41793646750049,11:36:33.646,16.4700,100
41795224502106,11:36:35.224,16.4600,100
41795224600292,11:36:35.224,16.4600,40
41829632772203,11:37:09.632,16.4600,60
41829632933825,11:37:09.632,16.4600,100
41891108513833,11:38:11.108,16.4700,1
41959296276983,11:39:19.296,16.4700,1
41959296276983,11:39:19.296,16.4700,1
41959296276983,11:39:19.296,16.4700,1
41959296276983,11:39:19.296,16.4700,1
41959296276983,11:39:19.296,16.4800,200
41959296276983,11:39:19.296,16.4800,96
41959296309483,11:39:19.296,16.4800,4
41959296309483,11:39:19.296,16.4800,10
41959452202193,11:39:19.452,16.4700,100
41961200360537,11:39:21.200,16.4700,100
41961200360537,11:39:21.200,16.4700,5
42008919671189,11:40:08.919,16.4500,100
42008919671189,11:40:08.919,16.4500,100
42008919671189,11:40:08.919,16.4500,1
42008920659121,11:40:08.920,16.4450,1
42008922912401,11:40:08.922,16.4450,99
42008922912401,11:40:08.922,16.4450,100
42008922912401,11:40:08.922,16.4400,1
42008922938720,11:40:08.922,16.4400,99
42008922938720,11:40:08.922,16.4400,100
42008922938720,11:40:08.922,16.4400,100
42008922938720,11:40:08.922,16.4400,100
42010200543311,11:40:10.200,16.4300,100
42010200543311,11:40:10.200,16.4300,400
42010200569352,11:40:10.200,16.4300,50
42018537148897,11:40:18.537,16.4200,100
42018537148897,11:40:18.537,16.4200,100
42018537148897,11:40:18.537,16.4200,1
42018537148897,11:40:18.537,16.4200,500
42018539027818,11:40:18.539,16.4000,100
42020594603929,11:40:20.594,16.4000,100
42025213640136,11:40:25.213,16.4000,200
42051190858377,11:40:51.190,16.4000,100
42051275953917,11:40:51.275,16.4000,100
42054346736801,11:40:54.346,16.3900,100
42054346736801,11:40:54.346,16.3900,432
42054346736801,11:40:54.346,16.3900,100
42054346736801,11:40:54.346,16.3900,100
42054346736801,11:40:54.346,16.3900,7
42120170340943,11:42:00.170,16.3900,300
42120170340943,11:42:00.170,16.3900,100
42126559645155,11:42:06.559,16.3900,100
42126559683059,11:42:06.559,16.3900,5
42126559730232,11:42:06.559,16.3900,95
42129404609911,11:42:09.404,16.4000,100
42129404609911,11:42:09.404,16.4000,100
42165350907890,11:42:45.350,16.4200,2
42166165096464,11:42:46.165,16.4200,3
42169974960963,11:42:49.974,16.4200,2
42173149473966,11:42:53.149,16.4200,2
42175672888119,11:42:55.672,16.4200,3
42177392714796,11:42:57.392,16.4200,2
42182692435943,11:43:02.692,16.4200,3
42183560960631,11:43:03.560,16.4200,2
42185416736761,11:43:05.416,16.4200,2
42186095011880,11:43:06.095,16.4200,2
42188150740922,11:43:08.150,16.4200,3
42196134429008,11:43:16.134,16.4200,174
42203595289147,11:43:23.595,16.4300,100
42203596758043,11:43:23.596,16.4300,100
42203606547874,11:43:23.606,16.4200,500
42203606547874,11:43:23.606,16.4200,411
42203606547874,11:43:23.606,16.4200,100
42226110221848,11:43:46.110,16.4200,53
42227021607945,11:43:47.021,16.4200,47
42227021607945,11:43:47.021,16.4200,53
42227040004723,11:43:47.040,16.4100,100
42227040004723,11:43:47.040,16.4100,434
42301047529820,11:45:01.047,16.3900,1
42301048707742,11:45:01.048,16.3800,100
42304597629738,11:45:04.597,16.3700,100
42304597629738,11:45:04.597,16.3700,68
42305900004218,11:45:05.900,16.3700,100
42368764008188,11:46:08.764,16.3700,100
42431575508273,11:47:11.575,16.3700,1
42431575508273,11:47:11.575,16.3700,1
42431575508273,11:47:11.575,16.3700,1
42532286298662,11:48:52.286,16.3800,200
42532286298662,11:48:52.286,16.3800,100
42532286298662,11:48:52.286,16.3800,700
42532287042229,11:48:52.287,16.3800,100
42532287066375,11:48:52.287,16.3800,100
42542537632428,11:49:02.537,16.3700,96
42542538930451,11:49:02.538,16.3700,4
42542694306202,11:49:02.694,16.3700,23
42542694306202,11:49:02.694,16.3700,176
42542694334261,11:49:02.694,16.3700,24
42542694334261,11:49:02.694,16.3700,100
42542694334261,11:49:02.694,16.3700,420
42542695419889,11:49:02.695,16.3600,200
42542695419889,11:49:02.695,16.3600,100
42542695419889,11:49:02.695,16.3600,100
42543620877007,11:49:03.620,16.3500,100
42543620877007,11:49:03.620,16.3500,200
42545632419579,11:49:05.632,16.3400,498
42547017927631,11:49:07.017,16.3400,100
42547018424616,11:49:07.018,16.3400,95
42547018472836,11:49:07.018,16.3400,4
42573035161275,11:49:33.035,16.3600,100
42578909860514,11:49:38.909,16.3700,100
42585604217432,11:49:45.604,16.3500,20
42757187837246,11:52:37.187,16.3600,1
42757187837246,11:52:37.187,16.3600,1
42757187837246,11:52:37.187,16.3600,1
42767185900621,11:52:47.185,16.3500,1
42767185900621,11:52:47.185,16.3500,172
42767185900621,11:52:47.185,16.3500,100
42767188024536,11:52:47.188,16.3400,100
42767188082416,11:52:47.188,16.3400,100
42767188099041,11:52:47.188,16.3300,100
42767645325243,11:52:47.645,16.3300,100
42791576336537,11:53:11.576,16.3300,100
42814040547587,11:53:34.040,16.3400,100
42981215093251,11:56:21.215,16.3400,1
42981215093251,11:56:21.215,16.3400,1
42981215093251,11:56:21.215,16.3500,98
42981215368676,11:56:21.215,16.3500,2
42981215392412,11:56:21.215,16.3500,1
42996865602844,11:56:36.865,16.3400,100
42996865602844,11:56:36.865,16.3400,100
43042994185925,11:57:22.994,16.3400,93
43055924296255,11:57:35.924,16.3300,100
43055924296255,11:57:35.924,16.3300,176
43055924296255,11:57:35.924,16.3300,1
43055925229246,11:57:35.925,16.3200,100
43055925229246,11:57:35.925,16.3200,100
43055925229246,11:57:35.925,16.3200,100
43055925229246,11:57:35.925,16.3200,100
43055927144268,11:57:35.927,16.3000,100
43055927144268,11:57:35.927,16.3000,100
43056201368310,11:57:36.201,16.3000,100
43058725159785,11:57:38.725,16.3000,13
43065527562809,11:57:45.527,16.2900,100
43065527592453,11:57:45.527,16.2900,460
43066739596493,11:57:46.739,16.2800,123
43066739596493,11:57:46.739,16.2800,233
43083924215426,11:58:03.924,16.2800,1
43083944050961,11:58:03.944,16.2900,99
43186369745744,11:59:46.369,16.2700,217
43186369745744,11:59:46.369,16.2700,100
43186369745744,11:59:46.369,16.2700,100
43186370434831,11:59:46.370,16.2600,100
43186371139311,11:59:46.371,16.2500,100
43186371139311,11:59:46.371,16.2500,100
43198672844724,11:59:58.672,16.2500,200
43301201025003,12:01:41.201,16.2500,300
43301202565999,12:01:41.202,16.2400,1
43301202568690,12:01:41.202,16.2400,1
43301202569240,12:01:41.202,16.2400,1
43301202570451,12:01:41.202,16.2400,1
43301202573601,12:01:41.202,16.2400,1
43301202574854,12:01:41.202,16.2400,1
43301202577221,12:01:41.202,16.2400,1
43301203040888,12:01:41.203,16.2400,93
43301203040888,12:01:41.203,16.2400,2
43301203060376,12:01:41.203,16.2400,98
43301203060376,12:01:41.203,16.2400,200
43301203060376,12:01:41.203,16.2400,196
43301203060376,12:01:41.203,16.2400,100
43301203147495,12:01:41.203,16.2400,100
43301206619178,12:01:41.206,16.2300,100
43301206619178,12:01:41.206,16.2300,100
43301217189844,12:01:41.217,16.2200,100
43306689443049,12:01:46.689,16.2200,1
43321024879130,12:02:01.024,16.2200,2
43339748319071,12:02:19.748,16.2300,300
43339754444121,12:02:19.754,16.2300,100
43342790718682,12:02:22.790,16.2300,300
43342795572633,12:02:22.795,16.2350,55
43360401773069,12:02:40.401,16.2350,99
43360401825829,12:02:40.401,16.2350,100
43360401870624,12:02:40.401,16.2350,100
43360402129271,12:02:40.402,16.2350,100
43360402229693,12:02:40.402,16.2350,37
43360402229693,12:02:40.402,16.2300,63
43456475240602,12:04:16.475,16.2300,140
43461514932396,12:04:21.514,16.2300,100
43527512034464,12:05:27.512,16.2350,1
43527514343377,12:05:27.514,16.2400,4
43527514343377,12:05:27.514,16.2400,51
43541998569394,12:05:41.998,16.2400,149
43541998751294,12:05:41.998,16.2400,100
43572397416219,12:06:12.397,16.2400,100
43572397416219,12:06:12.397,16.2400,100
43572399111561,12:06:12.399,16.2300,100
43572399155545,12:06:12.399,16.2300,100
43572400879340,12:06:12.400,16.2300,100
43572418706244,12:06:12.418,16.2300,100
43580740346628,12:06:20.740,16.2300,100
43580740346628,12:06:20.740,16.2300,200
43620172412211,12:07:00.172,16.2300,1
43620172412211,12:07:00.172,16.2300,1
43644501185533,12:07:24.501,16.2400,63
43663216798882,12:07:43.216,16.2400,16
43663247020906,12:07:43.247,16.2400,21
43676348968920,12:07:56.348,16.2500,200
43676348968920,12:07:56.348,16.2500,10
43748578307484,12:09:08.578,16.2600,68
43773131706494,12:09:33.131,16.2500,2
43773131706494,12:09:33.131,16.2500,1
43773131706494,12:09:33.131,16.2500,2
43773131706494,12:09:33.131,16.2500,2
43773131706494,12:09:33.131,16.2500,100
43773131706494,12:09:33.131,16.2500,100
43773131706494,12:09:33.131,16.2500,76
43773131706494,12:09:33.131,16.2500,164
43774619995496,12:09:34.619,16.2500,100
43889824119760,12:11:29.824,16.2550,1
43889824119760,12:11:29.824,16.2600,93
43889824130123,12:11:29.824,16.2600,6
43889824193318,12:11:29.824,16.2600,1
43890672186325,12:11:30.672,16.2700,100
43901752099499,12:11:41.752,16.2800,200
43901752099499,12:11:41.752,16.2800,100
43924491044490,12:12:04.491,16.2900,100
43964979010256,12:12:44.979,16.2900,31
43966020003144,12:12:46.020,16.2900,100
43966020003144,12:12:46.020,16.2900,100
43980896731248,12:13:00.896,16.2900,1
43980896789454,12:13:00.896,16.2900,100
43980896838448,12:13:00.896,16.2900,99
44056130194248,12:14:16.130,16.2800,100
44056130194248,12:14:16.130,16.2800,100
44056130966088,12:14:16.130,16.2700,100
44056130966088,12:14:16.130,16.2700,200
44056130966088,12:14:16.130,16.2700,100
44056134610981,12:14:16.134,16.2700,10
44056134958632,12:14:16.134,16.2650,70
44056135384336,12:14:16.135,16.2700,100
44057712103781,12:14:17.712,16.2650,1
44057721794152,12:14:17.721,16.2650,1
44094694925127,12:14:54.694,16.2700,100
44094695059458,12:14:54.695,16.2700,68
44094695158671,12:14:54.695,16.2700,32
44095002653704,12:14:55.002,16.2700,75
44173776605281,12:16:13.776,16.2800,63
44173776617492,12:16:13.776,16.2800,37
44203306442286,12:16:43.306,16.2900,100
44226411024921,12:17:06.411,16.2900,300
44253574204593,12:17:33.574,16.3000,22
44253574204593,12:17:33.574,16.3000,78
44258404022490,12:17:38.404,16.3000,100
44258404076304,12:17:38.404,16.3000,22
44319778676931,12:18:39.778,16.3000,100
44319778676931,12:18:39.778,16.3000,121
44319778703386,12:18:39.778,16.3000,79
44319778703386,12:18:39.778,16.3000,1
44319778703386,12:18:39.778,16.3000,100
44329891267067,12:18:49.891,16.2950,1
44365334671346,12:19:25.334,16.2900,100
44365334671346,12:19:25.334,16.2900,33
44365334697438,12:19:25.334,16.2900,67
44365334697438,12:19:25.334,16.2900,100
44365334697438,12:19:25.334,16.2900,100
44375521285224,12:19:35.521,16.2900,100
44375521456143,12:19:35.521,16.2900,100
44375521740430,12:19:35.521,16.2900,100
44375977803926,12:19:35.977,16.2800,68
44375977828262,12:19:35.977,16.2800,32
44375977828262,12:19:35.977,16.2800,159
44394216194135,12:19:54.216,16.2750,100
44394216194135,12:19:54.216,16.2750,100
44394216194135,12:19:54.216,16.2750,20
44425799727378,12:20:25.799,16.2750,100
44425799727378,12:20:25.799,16.2700,20
44425799727378,12:20:25.799,16.2700,6
44425799753622,12:20:25.799,16.2700,94
44425799753622,12:20:25.799,16.2700,100
44428529509899,12:20:28.529,16.2600,98
44428529536272,12:20:28.529,16.2600,2
44442535111565,12:20:42.535,16.2500,100
44493990500040,12:21:33.990,16.2500,10
44493990518693,12:21:33.990,16.2500,90
44493990518693,12:21:33.990,16.2500,16
44493990521693,12:21:33.990,16.2500,84
44493990521693,12:21:33.990,16.2500,21
44493990528277,12:21:33.990,16.2500,102
44493990581223,12:21:33.990,16.2500,77
44494002575499,12:21:34.002,16.2500,100
44500211786363,12:21:40.211,16.2500,100
44524669684757,12:22:04.669,16.2700,100
44530935669625,12:22:10.935,16.2800,100
44542160838595,12:22:22.160,16.2800,100
44622585408891,12:23:42.585,16.2800,100
44622585434517,12:23:42.585,16.2800,200
44622585434517,12:23:42.585,16.2800,180
44622585434517,12:23:42.585,16.2800,100
44622585434517,12:23:42.585,16.2800,100
44622589772852,12:23:42.589,16.2700,100
44622589799069,12:23:42.589,16.2700,83
44622589799069,12:23:42.589,16.2700,100
44640369488382,12:24:00.369,16.2650,100
44640369850960,12:24:00.369,16.2600,100
44640396478908,12:24:00.396,16.2500,20
44640396478908,12:24:00.396,16.2500,6
44640396503597,12:24:00.396,16.2500,94
44649779084652,12:24:09.779,16.2450,100
44649779084652,12:24:09.779,16.2450,100
44675329125675,12:24:35.329,16.2300,20
44675329125675,12:24:35.329,16.2300,80
44877050355000,12:27:57.050,16.2400,95
44880030836374,12:28:00.030,16.2400,105
44880030836374,12:28:00.030,16.2400,95
44880030891883,12:28:00.030,16.2400,5
44880030891883,12:28:00.030,16.2400,10
44880030936487,12:28:00.030,16.2400,39
44880030969416,12:28:00.030,16.2400,61
44951469869060,12:29:11.469,16.2600,100
45101393766933,12:31:41.393,16.2700,1
45101406956101,12:31:41.406,16.2700,1
45147660498155,12:32:27.660,16.2600,200
45147660498155,12:32:27.660,16.2600,100
45147660498155,12:32:27.660,16.2600,100
45147660498155,12:32:27.660,16.2600,100
45147660498155,12:32:27.660,16.2600,100
45192544333596,12:33:12.544,16.2600,100
45197139740159,12:33:17.139,16.2600,100
45200903002279,12:33:20.903,16.2600,100
45200903164712,12:33:20.903,16.2600,100
45200903190067,12:33:20.903,16.2600,100
45231493204870,12:33:51.493,16.2500,100
45231493204870,12:33:51.493,16.2500,200
45231493204870,12:33:51.493,16.2500,3
45231493232089,12:33:51.493,16.2500,97
45231493232089,12:33:51.493,16.2500,200
45231493232089,12:33:51.493,16.2500,100
45231493232089,12:33:51.493,16.2500,100
45234494553907,12:33:54.494,16.2450,5
45234494759734,12:33:54.494,16.2450,5
45234495087528,12:33:54.495,16.2450,5
45234495465370,12:33:54.495,16.2400,5
45234495465370,12:33:54.495,16.2400,29
45237493601555,12:33:57.493,16.2350,100
45237493601555,12:33:57.493,16.2350,85
45237493601555,12:33:57.493,16.2350,71
45237493601555,12:33:57.493,16.2300,10
45237493601555,12:33:57.493,16.2300,10
45237493601555,12:33:57.493,16.2300,44
45237493784276,12:33:57.493,16.2300,56
45237493784276,12:33:57.493,16.2300,44
45237493849479,12:33:57.493,16.2300,56
45237493849479,12:33:57.493,16.2300,44
45237494186225,12:33:57.494,16.2300,56
45243495563212,12:34:03.495,16.2200,20
45355651866849,12:35:55.651,16.2100,10
45355651866849,12:35:55.651,16.2100,10
45355651866849,12:35:55.651,16.2100,2
45355651866849,12:35:55.651,16.2100,2
45367343704511,12:36:07.343,16.2100,100
45367343704511,12:36:07.343,16.2100,100
45409923457668,12:36:49.923,16.2100,100
45409934216110,12:36:49.934,16.2100,100
45409934216110,12:36:49.934,16.2100,100
45410024050131,12:36:50.024,16.2100,100
45495218603242,12:38:15.218,16.2200,100
45510811728001,12:38:30.811,16.2200,100
45510815283456,12:38:30.815,16.2100,100
45510815308686,12:38:30.815,16.2100,100
45510815308686,12:38:30.815,16.2100,189
45510816108663,12:38:30.816,16.2000,20
45510816108663,12:38:30.816,16.2000,100
45510816149200,12:38:30.816,16.2000,100
45510816150527,12:38:30.816,16.2000,100
45510816196742,12:38:30.816,16.2050,100
45510819065874,12:38:30.819,16.2100,181
45513322869320,12:38:33.322,16.2100,159
45513322869320,12:38:33.322,16.2100,200
45515516026074,12:38:35.516,16.2100,42
45519591045310,12:38:39.591,16.2000,100
45519591045310,12:38:39.591,16.2000,200
45549859387170,12:39:09.859,16.2000,100
45549859387170,12:39:09.859,16.2000,163
45549859387170,12:39:09.859,16.2000,39
45549859387170,12:39:09.859,16.2000,100
45551629185060,12:39:11.629,16.2000,100
45551630504711,12:39:11.630,16.1950,200
45551638325606,12:39:11.638,16.2000,100
45553815778624,12:39:13.815,16.2100,24
45553815778624,12:39:13.815,16.2100,100
45553815778624,12:39:13.815,16.2100,100
45554440863187,12:39:14.440,16.2200,100
45556509441073,12:39:16.509,16.2200,100
45556518674078,12:39:16.518,16.2200,200
45556518674078,12:39:16.518,16.2200,49
45559783617132,12:39:19.783,16.2200,200
45559784508791,12:39:19.784,16.2100,100
45559785052047,12:39:19.785,16.2100,10
45562196487489,12:39:22.196,16.2100,100
45562202628760,12:39:22.202,16.2000,100
45603682624661,12:40:03.682,16.2100,100
45603682624661,12:40:03.682,16.2100,100
45603683184975,12:40:03.683,16.2100,100
45710249338962,12:41:50.249,16.2100,100
45710249338962,12:41:50.249,16.2100,192
45710249338962,12:41:50.249,16.2100,100
45710250024826,12:41:50.250,16.2000,100
45710250295103,12:41:50.250,16.2000,100
45710251552626,12:41:50.251,16.2000,100
45710251552626,12:41:50.251,16.2000,63
45729553588037,12:42:09.553,16.2000,100
45729553588037,12:42:09.553,16.2000,100
45794598848962,12:43:14.598,16.2100,100
45796492522111,12:43:16.492,16.2100,42
45835979932815,12:43:55.979,16.2200,100
45848748499304,12:44:08.748,16.2200,100
45876237674604,12:44:36.237,16.2200,100
45876237674604,12:44:36.237,16.2200,1
45893959308572,12:44:53.959,16.2300,100
45904498512179,12:45:04.498,16.2400,100
45904498512179,12:45:04.498,16.2400,100
45936189813154,12:45:36.189,16.2600,100
46024721955354,12:47:04.721,16.2700,100
46024721955354,12:47:04.721,16.2700,100
46024721955354,12:47:04.721,16.2700,10
46024722376553,12:47:04.722,16.2700,200
46043680453750,12:47:23.680,16.2800,100
46043682087181,12:47:23.682,16.2800,100
46055870081310,12:47:35.870,16.2700,100
46055870143989,12:47:35.870,16.2700,100
46055871333366,12:47:35.871,16.2700,177
46055871333366,12:47:35.871,16.2700,100
46125980141225,12:48:45.980,16.2700,100
46134831823387,12:48:54.831,16.2700,100
46151994200984,12:49:11.994,16.2700,100
46151994360024,12:49:11.994,16.2700,100
46190661853123,12:49:50.661,16.2900,100
46190666175252,12:49:50.666,16.2900,100
46200056372527,12:50:00.056,16.2900,100
46215563310193,12:50:15.563,16.2900,100
46226121927197,12:50:26.121,16.2900,100
46273905312312,12:51:13.905,16.3000,100
46279717016045,12:51:19.717,16.3000,100
46297868314851,12:51:37.868,16.3000,100
46313326975052,12:51:53.326,16.2900,100
46313326975052,12:51:53.326,16.2900,100
46313326975052,12:51:53.326,16.2900,100
46313326975052,12:51:53.326,16.2900,189
46313326975052,12:51:53.326,16.2900,100
46313326975052,12:51:53.326,16.2900,189
46313326975052,12:51:53.326,16.2900,100
46313326975052,12:51:53.326,16.2900,1
46314490940074,12:51:54.490,16.2900,100
46349995350360,12:52:29.995,16.2900,182
46349995358540,12:52:29.995,16.2900,18
46463019658382,12:54:23.019,16.2900,100
46466375074621,12:54:26.375,16.2900,100
46528328464407,12:55:28.328,16.2900,100
46528328464407,12:55:28.328,16.2900,100
46528328464407,12:55:28.328,16.2900,100
46528328464407,12:55:28.328,16.2900,100
46528328464407,12:55:28.328,16.2900,100
46528328464407,12:55:28.328,16.2900,100
46528328602227,12:55:28.328,16.2900,100
46532347639562,12:55:32.347,16.2900,100
46588575150804,12:56:28.575,16.2900,100
46603305814281,12:56:43.305,16.2900,100
46650398705217,12:57:30.398,16.2900,100
46650398705217,12:57:30.398,16.2900,100
46650398705217,12:57:30.398,16.2900,200
46650398705217,12:57:30.398,16.2900,200
46650398705217,12:57:30.398,16.2900,100
46650491394219,12:57:30.491,16.2900,100
46653490649203,12:57:33.490,16.2900,100
46751463678006,12:59:11.463,16.3000,200
46751464060000,12:59:11.464,16.3000,100
46754963405159,12:59:14.963,16.3000,100
46768858160734,12:59:28.858,16.3000,100
46775968470954,12:59:35.968,16.3000,100
46786377690339,12:59:46.377,16.3000,100
46792717695230,12:59:52.717,16.3000,100
46805679588666,13:00:05.679,16.2900,100
46805679588666,13:00:05.679,16.2900,100
46805679588666,13:00:05.679,16.2900,172
46805679588666,13:00:05.679,16.2900,100
46805679588666,13:00:05.679,16.2900,100
46805679588666,13:00:05.679,16.2900,100
46805679899156,13:00:05.679,16.2900,100
46805679899156,13:00:05.679,16.2900,100
46833334988830,13:00:33.334,16.2800,165
46833334988830,13:00:33.334,16.2800,99
46833338690404,13:00:33.338,16.2800,35
47107437078817,13:05:07.437,16.2700,20
47107437078817,13:05:07.437,16.2700,100
47107437078817,13:05:07.437,16.2700,100
47107437078817,13:05:07.437,16.2700,173
47107437078817,13:05:07.437,16.2700,100
47107437078817,13:05:07.437,16.2700,100
47107437078817,13:05:07.437,16.2700,100
47108439293886,13:05:08.439,16.2700,100
47109467589553,13:05:09.467,16.2600,10
47109467589553,13:05:09.467,16.2600,100
47109467589553,13:05:09.467,16.2600,100
47109467589553,13:05:09.467,16.2600,100
47109467589553,13:05:09.467,16.2600,63
47109467620423,13:05:09.467,16.2600,37
47109467620423,13:05:09.467,16.2600,160
47109472484257,13:05:09.472,16.2500,20
47109472484257,13:05:09.472,16.2500,100
47112897807792,13:05:12.897,16.2400,15
47112897833711,13:05:12.897,16.2400,5
47112897833711,13:05:12.897,16.2400,100
47116185734647,13:05:16.185,16.2300,100
47116185734647,13:05:16.185,16.2300,100
47116614256778,13:05:16.614,16.2400,100
47192285119237,13:06:32.285,16.2500,200
47221180056967,13:07:01.180,16.2600,100
47221180056967,13:07:01.180,16.2600,100
47231645767083,13:07:11.645,16.2600,100
47231911246098,13:07:11.911,16.2600,100
47231911270534,13:07:11.911,16.2600,91
47240626294402,13:07:20.626,16.2600,100
47240627999288,13:07:20.627,16.2600,88
47240628226685,13:07:20.628,16.2600,21
47312295152998,13:08:32.295,16.2600,8
47313026581439,13:08:33.026,16.2600,92
47313026581439,13:08:33.026,16.2600,5
47313026591437,13:08:33.026,16.2600,95
47313663259815,13:08:33.663,16.2600,100
47361977612360,13:09:21.977,16.2600,100
47364490646543,13:09:24.490,16.2600,58
47516110072710,13:11:56.110,16.2600,1
47548468637186,13:12:28.468,16.2600,99
47584537991504,13:13:04.537,16.2500,100
47584538082728,13:13:04.538,16.2500,60
47584538082728,13:13:04.538,16.2500,1
47584538082728,13:13:04.538,16.2500,173
47584540529137,13:13:04.540,16.2400,100
47586491341361,13:13:06.491,16.2500,100
47653932581040,13:14:13.932,16.2400,100
47669940136628,13:14:29.940,16.2400,100
47669940235856,13:14:29.940,16.2400,100
47669940305942,13:14:29.940,16.2400,77
47669940305942,13:14:29.940,16.2400,23
47682494635505,13:14:42.494,16.2400,77
47682494635505,13:14:42.494,16.2400,100
47682494635505,13:14:42.494,16.2400,16
47682494771044,13:14:42.494,16.2400,84
47685544967285,13:14:45.544,16.2300,10
47685544967285,13:14:45.544,16.2300,90
47688494725038,13:14:48.494,16.2300,10
47694495087226,13:14:54.495,16.2200,100
47694495163761,13:14:54.495,16.2200,100
47694495163761,13:14:54.495,16.2200,100
47694495164615,13:14:54.495,16.2200,55
47694495164615,13:14:54.495,16.2200,45
47694497893719,13:14:54.497,16.2100,10
47694501499087,13:14:54.501,16.2200,100
47708823070601,13:15:08.823,16.2300,90
47708823811804,13:15:08.823,16.2300,110
47731376252194,13:15:31.376,16.2300,31
47731491170578,13:15:31.491,16.2300,69
47807690117808,13:16:47.690,16.2200,100
47807690117808,13:16:47.690,16.2200,100
47911762332425,13:18:31.762,16.2100,100
47911762332425,13:18:31.762,16.2100,1
47933341049288,13:18:53.341,16.2200,40
47963379818142,13:19:23.379,16.2200,160
47963379818142,13:19:23.379,16.2200,40
47963380138892,13:19:23.380,16.2200,60
47986474484462,13:19:46.474,16.2100,100
47986474512924,13:19:46.474,16.2100,1
47986474529392,13:19:46.474,16.2100,99
47986474529392,13:19:46.474,16.2100,100
47986474529392,13:19:46.474,16.2100,35
47986474529392,13:19:46.474,16.2100,1
48080084917060,13:21:20.084,16.2000,20
48080084917060,13:21:20.084,16.2000,87
48080494927399,13:21:20.494,16.2000,100
48080495062210,13:21:20.495,16.2000,13
48109792456512,13:21:49.792,16.2000,100
48109792456512,13:21:49.792,16.2000,100
48118020579304,13:21:58.020,16.2000,100
48130352989430,13:22:10.352,16.2000,100
48131229071643,13:22:11.229,16.2000,137
48131229071643,13:22:11.229,16.2000,100
48148332037961,13:22:28.332,16.1900,100
48148332037961,13:22:28.332,16.1900,100
48148332037961,13:22:28.332,16.1900,100
48148332037961,13:22:28.332,16.1800,100
48148332037961,13:22:28.332,16.1800,100
48148332037961,13:22:28.332,16.1800,100
48148332037961,13:22:28.332,16.1800,100
48148332037961,13:22:28.332,16.1800,100
48148332037961,13:22:28.332,16.1800,59
48148332037961,13:22:28.332,16.1800,41
48148332754846,13:22:28.332,16.1800,59
48148332754846,13:22:28.332,16.1800,41
48148333958625,13:22:28.333,16.1800,59
48148333958625,13:22:28.333,16.1800,100
48148337325390,13:22:28.337,16.1800,100
48148407391608,13:22:28.407,16.1700,100
48148407391608,13:22:28.407,16.1700,100
48148407391608,13:22:28.407,16.1600,300
48148407391608,13:22:28.407,16.1600,100
48148407391608,13:22:28.407,16.1600,100
48148407391608,13:22:28.407,16.1600,100
48148407391608,13:22:28.407,16.1600,100
48148407391608,13:22:28.407,16.1600,100
48148415819725,13:22:28.415,16.1500,100
48148446640481,13:22:28.446,16.1500,100
48148820550973,13:22:28.820,16.1500,100
48209961071338,13:23:29.961,16.1500,100
48209961071338,13:23:29.961,16.1500,100
48210336954352,13:23:30.336,16.1500,1
48210337539812,13:23:30.337,16.1500,1
48216970646100,13:23:36.970,16.1500,98
48216970646100,13:23:36.970,16.1600,4
48216970646100,13:23:36.970,16.1600,100
48217493590080,13:23:37.493,16.1600,100
48221698469968,13:23:41.698,16.1700,100
48222228005187,13:23:42.228,16.1650,100
48396986543308,13:26:36.986,16.1700,100
48397592139563,13:26:37.592,16.1700,100
48481934632793,13:28:01.934,16.1700,200
48482760246877,13:28:02.760,16.1700,100
48514365554266,13:28:34.365,16.1700,200
48546455171883,13:29:06.455,16.1600,100
48546455171883,13:29:06.455,16.1600,2
48546455171883,13:29:06.455,16.1600,1
48546455171883,13:29:06.455,16.1600,100
48546455171883,13:29:06.455,16.1600,200
48546455171883,13:29:06.455,16.1600,163
48546455171883,13:29:06.455,16.1500,133
48546455171883,13:29:06.455,16.1500,100
48546455171883,13:29:06.455,16.1500,1
48546458024481,13:29:06.458,16.1500,100
48546458167196,13:29:06.458,16.1500,100
48546458169195,13:29:06.458,16.1500,100
48546464200440,13:29:06.464,16.1500,99
48546465520863,13:29:06.465,16.1400,100
48546465520863,13:29:06.465,16.1400,1
48549492086687,13:29:09.492,16.1400,99
48549492086687,13:29:09.492,16.1400,1
48555778758517,13:29:15.778,16.1400,299
48555778758517,13:29:15.778,16.1400,99
48555778758517,13:29:15.778,16.1400,100
48555881886462,13:29:15.881,16.1300,100
48590688602052,13:29:50.688,16.1300,200
48591490689082,13:29:51.490,16.1400,100
48591490689082,13:29:51.490,16.1400,100
48591499463260,13:29:51.499,16.1400,100
48593498127033,13:29:53.498,16.1200,100
48649137246998,13:30:49.137,16.1200,200
48652433349093,13:30:52.433,16.1200,100
48694230538004,13:31:34.230,16.1300,196
48694237455738,13:31:34.237,16.1300,4
48721434501848,13:32:01.434,16.1300,100
48755137705459,13:32:35.137,16.1300,100
48890029022806,13:34:50.029,16.1300,100
48966189467288,13:36:06.189,16.1300,1
48998493460771,13:36:38.493,16.1200,100
48998493460771,13:36:38.493,16.1200,100
48998493460771,13:36:38.493,16.1200,100
48998493460771,13:36:38.493,16.1200,100
48998493460771,13:36:38.493,16.1200,100
48998493460771,13:36:38.493,16.1200,84
48998493582032,13:36:38.493,16.1200,113
49001494210309,13:36:41.494,16.1200,100
49001494210309,13:36:41.494,16.1100,100
49001494608435,13:36:41.494,16.1100,1
49001494661753,13:36:41.494,16.1100,99
49001494661753,13:36:41.494,16.1100,1
49001495811289,13:36:41.495,16.1100,100
49001495811289,13:36:41.495,16.1100,362
49001495811289,13:36:41.495,16.1100,100
49001508125405,13:36:41.508,16.1050,99
49001508125405,13:36:41.508,16.1050,1
49001508675019,13:36:41.508,16.1050,99
49001508675019,13:36:41.508,16.1050,1
49001508745449,13:36:41.508,16.1050,99
49001508745449,13:36:41.508,16.1050,1
49001508867167,13:36:41.508,16.1050,99
49001508867167,13:36:41.508,16.1050,1
49001509136891,13:36:41.509,16.1050,99
49004493205456,13:36:44.493,16.1000,100
49004493763203,13:36:44.493,16.0900,100
49004494727434,13:36:44.494,16.0900,100
49034467010029,13:37:14.467,16.0850,100
49552937726640,13:45:52.937,16.1000,200
49576559847024,13:46:16.559,16.1200,1
49576571385441,13:46:16.571,16.1200,1
49576572808384,13:46:16.572,16.1200,1
49657044933663,13:47:37.044,16.1300,1
49657046454701,13:47:37.046,16.1300,1
49667175162461,13:47:47.175,16.1300,198
49667177534068,13:47:47.177,16.1400,100
49694673348802,13:48:14.673,16.1400,100
49694673574074,13:48:14.673,16.1400,100
49720122975772,13:48:40.122,16.1500,100
49746132605006,13:49:06.132,16.1500,100
49746136502315,13:49:06.136,16.1500,100
49746137295070,13:49:06.137,16.1500,6
49746140141894,13:49:06.140,16.1500,100
49746146353198,13:49:06.146,16.1500,100
49797914269687,13:49:57.914,16.1500,100
49797914269687,13:49:57.914,16.1500,100
49797914269687,13:49:57.914,16.1500,100
49797914269687,13:49:57.914,16.1500,100
49797914269687,13:49:57.914,16.1500,100
49797914269687,13:49:57.914,16.1500,100
49797914269687,13:49:57.914,16.1500,177
49798491391756,13:49:58.491,16.1500,100
49804465974896,13:50:04.465,16.1400,100
49804465974896,13:50:04.465,16.1400,100
49804465974896,13:50:04.465,16.1400,100
49804465974896,13:50:04.465,16.1400,100
49804465974896,13:50:04.465,16.1400,100
49804466085996,13:50:04.466,16.1400,92
49809303301442,13:50:09.303,16.1400,200
49809333823461,13:50:09.333,16.1400,100
49809340710491,13:50:09.340,16.1400,100
49810042732717,13:50:10.042,16.1300,100
49810042732717,13:50:10.042,16.1300,100
49810044046597,13:50:10.044,16.1300,100
49810458860361,13:50:10.458,16.1300,100
49811732017931,13:50:11.732,16.1250,100
49813610788012,13:50:13.610,16.1100,5
49813610788012,13:50:13.610,16.1100,100
49814388802283,13:50:14.388,16.1000,1
49814388802283,13:50:14.388,16.1000,99
49817939784865,13:50:17.939,16.1000,1
49817939784865,13:50:17.939,16.1000,100
49817940573762,13:50:17.940,16.0900,24
49820170920041,13:50:20.170,16.0800,100
49820170920041,13:50:20.170,16.0800,100
49826023112955,13:50:26.023,16.0800,100
49845491826081,13:50:45.491,16.0800,100
49845491826081,13:50:45.491,16.0800,34
49893898028724,13:51:33.898,16.0900,100
49940010996754,13:52:20.010,16.1000,100
49955530431971,13:52:35.530,16.1200,100
49955530431971,13:52:35.530,16.1200,100
49955530441240,13:52:35.530,16.1200,100
49955532404372,13:52:35.532,16.1300,100
49958097206182,13:52:38.097,16.1100,100
49958097206182,13:52:38.097,16.1100,100
49958100008239,13:52:38.100,16.1100,100
49958100008239,13:52:38.100,16.1100,100
49959495543046,13:52:39.495,16.1100,100
49959964719512,13:52:39.964,16.1000,100
49959964719512,13:52:39.964,16.1000,100
49959964719512,13:52:39.964,16.1000,100
49959971518118,13:52:39.971,16.0900,100
49959972030849,13:52:39.972,16.0900,96
49959972161933,13:52:39.972,16.0900,4
49959989804952,13:52:39.989,16.0900,100
49967861651017,13:52:47.861,16.0800,100
49967861651017,13:52:47.861,16.0800,100
49967861651017,13:52:47.861,16.0800,100
49967861651017,13:52:47.861,16.0800,100
49967861651017,13:52:47.861,16.0800,10
49967861651017,13:52:47.861,16.0800,100
49967861651017,13:52:47.861,16.0800,100
49967862924353,13:52:47.862,16.0700,600
49967862924353,13:52:47.862,16.0700,100
49967862924353,13:52:47.862,16.0700,5
49967863621435,13:52:47.863,16.0700,2
49967863640100,13:52:47.863,16.0700,98
49967863640100,13:52:47.863,16.0700,400
49967863642234,13:52:47.863,16.0600,100
49967863642234,13:52:47.863,16.0600,100
49967863642234,13:52:47.863,16.0600,100
49967863813200,13:52:47.863,16.0700,10
49967863813200,13:52:47.863,16.0700,10
49967864635692,13:52:47.864,16.0500,2000
49967864635692,13:52:47.864,16.0500,300
49967864635692,13:52:47.864,16.0500,10
49967864635692,13:52:47.864,16.0500,100
49967866571035,13:52:47.866,16.0500,100
49967867099730,13:52:47.867,16.0400,100
49967867099730,13:52:47.867,16.0400,100
49967867099730,13:52:47.867,16.0400,100
49967867154690,13:52:47.867,16.0400,100
49967867684144,13:52:47.867,16.0300,219
49967872108694,13:52:47.872,16.0500,100
49967872134935,13:52:47.872,16.0500,100
49968995802925,13:52:48.995,16.0600,100
49968995960699,13:52:48.995,16.0600,100
49968995960699,13:52:48.995,16.0600,100
49968995960699,13:52:48.995,16.0500,100
49968995960699,13:52:48.995,16.0500,100
49968996113501,13:52:48.996,16.0500,100
49970090626095,13:52:50.090,16.0400,301
49970090650969,13:52:50.090,16.0400,399
49970090650969,13:52:50.090,16.0400,100
49970090650969,13:52:50.090,16.0400,100
49971115177903,13:52:51.115,16.0200,100
49971121036232,13:52:51.121,16.0100,100
49971121036232,13:52:51.121,16.0100,100
49971121036232,13:52:51.121,16.0100,100
49972529894830,13:52:52.529,16.0200,200
49972530199294,13:52:52.530,16.0200,92
49972530225096,13:52:52.530,16.0200,8
49978173896221,13:52:58.173,16.0300,100
49978173920897,13:52:58.173,16.0300,100
49979238754254,13:52:59.238,16.0400,100
49979464839373,13:52:59.464,16.0500,300
49979564802926,13:52:59.564,16.0500,200
50006205170315,13:53:26.205,16.0600,100
50006209210552,13:53:26.209,16.0800,400
50006712155142,13:53:26.712,16.0900,100
50028205340622,13:53:48.205,16.1000,100
50060617213802,13:54:20.617,16.1200,100
50060617238580,13:54:20.617,16.1200,100
50073271001212,13:54:33.271,16.1300,100
50073271026664,13:54:33.271,16.1300,100
50087115754271,13:54:47.115,16.1300,100
50087146440239,13:54:47.146,16.1500,100
50087146464973,13:54:47.146,16.1500,300
50087146464973,13:54:47.146,16.1500,200
50087152212581,13:54:47.152,16.1500,100
50091473164167,13:54:51.473,16.1400,100
50091473164167,13:54:51.473,16.1400,200
50091650214308,13:54:51.650,16.1300,100
50092071451988,13:54:52.071,16.1400,100
50092088466471,13:54:52.088,16.1500,100
50092092719218,13:54:52.092,16.1500,100
50092097302064,13:54:52.097,16.1500,100
50099214056093,13:54:59.214,16.1500,100
50099218339653,13:54:59.218,16.1500,100
50104766699771,13:55:04.766,16.1250,1
50104766836895,13:55:04.766,16.1250,1
50108178782411,13:55:08.178,16.1400,100
50110165838056,13:55:10.165,16.1500,138
50110165838056,13:55:10.165,16.1500,62
50156022907554,13:55:56.022,16.1300,100
50156023430363,13:55:56.023,16.1300,100
50192876086248,13:56:32.876,16.1150,100
50192876086248,13:56:32.876,16.1150,13
50220752695848,13:57:00.752,16.1200,104
50220752705846,13:57:00.752,16.1200,96
50220752705846,13:57:00.752,16.1200,100
50220752848737,13:57:00.752,16.1200,100
50220860479923,13:57:00.860,16.1200,200
50221011267105,13:57:01.011,16.1200,17
50274680983119,13:57:54.680,16.1200,100
50274786596407,13:57:54.786,16.1200,100
50340103440832,13:59:00.103,16.1200,200
50355459722858,13:59:15.459,16.1300,100
50355459722858,13:59:15.459,16.1300,100
50365117881337,13:59:25.117,16.1300,100
50401174352595,14:00:01.174,16.1400,100
50401174352595,14:00:01.174,16.1400,10
50402726433744,14:00:02.726,16.1300,100
50402726433744,14:00:02.726,16.1300,100
50408990640612,14:00:08.990,16.1500,200
50408990640612,14:00:08.990,16.1500,11
50408990837397,14:00:08.990,16.1500,89
50408993824271,14:00:08.993,16.1500,79
50408996114997,14:00:08.996,16.1500,21
50409007795090,14:00:09.007,16.1500,200
50410055208981,14:00:10.055,16.1700,100
50413043608233,14:00:13.043,16.1700,100
50413043608233,14:00:13.043,16.1700,100
50423339908666,14:00:23.339,16.1600,100
50425192211660,14:00:25.192,16.1500,100
50465467189614,14:01:05.467,16.1700,100
50471980825434,14:01:11.980,16.1700,10
50471980966099,14:01:11.980,16.1700,90
50495573548690,14:01:35.573,16.1900,100
50535832903043,14:02:15.832,16.1800,24
50535832903043,14:02:15.832,16.1800,170
50535832903043,14:02:15.832,16.1800,100
50536301037924,14:02:16.301,16.1800,100
50536303465762,14:02:16.303,16.1700,100
50536304066658,14:02:16.304,16.1700,100
50536304066658,14:02:16.304,16.1700,15
50536304197168,14:02:16.304,16.1700,100
50536304964640,14:02:16.304,16.1700,100
50537454106479,14:02:17.454,16.1700,68
50537454427578,14:02:17.454,16.1700,32
50537454427578,14:02:17.454,16.1700,59
50537456522039,14:02:17.456,16.1700,41
50543491333221,14:02:23.491,16.1600,10
50548780795539,14:02:28.780,16.1600,90
50552444179159,14:02:32.444,16.1600,10
50552444179159,14:02:32.444,16.1600,90
50552444807369,14:02:32.444,16.1600,10
50591115802038,14:03:11.115,16.1700,100
50623668143639,14:03:43.668,16.1850,1
50623668143639,14:03:43.668,16.1900,99
50643966372963,14:04:03.966,16.2100,100
50664486418497,14:04:24.486,16.2200,100
50664486877175,14:04:24.486,16.2200,100
50664486877175,14:04:24.486,16.2200,4
50679673289264,14:04:39.673,16.2300,100
50691540549587,14:04:51.540,16.2500,200
50704163900966,14:05:04.163,16.2800,100
50704163967628,14:05:04.163,16.2800,100
50734736231667,14:05:34.736,16.2700,100
50734736231667,14:05:34.736,16.2700,100
50734736231667,14:05:34.736,16.2700,100
50734736231667,14:05:34.736,16.2700,200
50734736231667,14:05:34.736,16.2700,189
50734736231667,14:05:34.736,16.2700,100
50734736231667,14:05:34.736,16.2700,100
50734741022092,14:05:34.741,16.2700,100
50759236782578,14:05:59.236,16.2700,200
50759317593137,14:05:59.317,16.2700,1
50782444758805,14:06:22.444,16.2700,123
50804021304646,14:06:44.021,16.2800,100
50831727613875,14:07:11.727,16.2800,2
50831727613875,14:07:11.727,16.2800,98
50831727651422,14:07:11.727,16.2800,2
50853307060182,14:07:33.307,16.2900,100
50853309297652,14:07:33.309,16.3100,100
50859943095007,14:07:39.943,16.3100,100
50881212605620,14:08:01.212,16.3200,1
50881212605620,14:08:01.212,16.3200,1
50951152158677,14:09:11.152,16.3300,100
50951155633105,14:09:11.155,16.3300,6
50951166501380,14:09:11.166,16.3300,1
50952467333905,14:09:12.467,16.3300,100
50952467333905,14:09:12.467,16.3300,200
50952469321456,14:09:12.469,16.3200,100
50952469321456,14:09:12.469,16.3200,100
50999706838511,14:09:59.706,16.3100,164
50999706838511,14:09:59.706,16.3100,100
50999706838511,14:09:59.706,16.3100,100
50999706838511,14:09:59.706,16.3100,200
50999706838511,14:09:59.706,16.3100,200
50999706925827,14:09:59.706,16.3000,100
50999707406232,14:09:59.707,16.3100,91
50999708200726,14:09:59.708,16.2900,1
50999708227184,14:09:59.708,16.2900,55
50999708227184,14:09:59.708,16.2900,44
50999708467730,14:09:59.708,16.2900,100
50999708467730,14:09:59.708,16.2900,83
50999709477968,14:09:59.709,16.2900,100
50999710131475,14:09:59.710,16.2900,100
50999710578584,14:09:59.710,16.2900,100
50999710669878,14:09:59.710,16.3000,11
50999715063348,14:09:59.715,16.3000,89
50999715063348,14:09:59.715,16.3000,11
50999719122972,14:09:59.719,16.3100,164
51012552317027,14:10:12.552,16.3000,189
51012552328966,14:10:12.552,16.3000,11
51015039929094,14:10:15.039,16.3100,12
51028741148817,14:10:28.741,16.2900,1
51065121259064,14:11:05.121,16.3000,100
51183340956365,14:13:03.340,16.3200,1
51186955409474,14:13:06.955,16.3200,3
51186955409474,14:13:06.955,16.3200,97
51190494068144,14:13:10.494,16.3100,100
51190968583548,14:13:10.968,16.3000,100
51242678423012,14:14:02.678,16.3100,100
51242678596709,14:14:02.678,16.3100,100
51242678624120,14:14:02.678,16.3100,100
51279541544654,14:14:39.541,16.3100,100
51279541544654,14:14:39.541,16.3100,200
51300184217165,14:15:00.184,16.3100,80
51300184279009,14:15:00.184,16.3100,90
51300184379411,14:15:00.184,16.3100,30
51300184379411,14:15:00.184,16.3100,59
51300184571565,14:15:00.184,16.3100,41
51300184571565,14:15:00.184,16.3100,100
51300228581893,14:15:00.228,16.3000,100
51300228581893,14:15:00.228,16.3000,100
51300228581893,14:15:00.228,16.3000,100
51300228581893,14:15:00.228,16.3000,100
51300326990179,14:15:00.326,16.3000,100
51300330823272,14:15:00.330,16.3000,100
51300653509836,14:15:00.653,16.3000,100
51301079883131,14:15:01.079,16.3000,100
51324311742105,14:15:24.311,16.2900,200
51347091738795,14:15:47.091,16.3000,100
51388289813946,14:16:28.289,16.3100,100
51388290450495,14:16:28.290,16.3200,22
51429666762047,14:17:09.666,16.3200,90
51429666762511,14:17:09.666,16.3200,10
51435225786866,14:17:15.225,16.3200,90
51435225799187,14:17:15.225,16.3200,10
51435225799187,14:17:15.225,16.3200,100
51435227817687,14:17:15.227,16.3100,100
51442529146906,14:17:22.529,16.3000,100
51481440708041,14:18:01.440,16.3000,90
51481440721318,14:18:01.440,16.3000,10
51481441488270,14:18:01.441,16.3000,98
51509938788793,14:18:29.938,16.3000,164
51561106387663,14:19:21.106,16.3100,100
51561106387663,14:19:21.106,16.3100,100
51561106387663,14:19:21.106,16.3100,5
51561106387663,14:19:21.106,16.3100,1
51561106387663,14:19:21.106,16.3100,1
51561106387663,14:19:21.106,16.3100,493
51561106923407,14:19:21.106,16.3100,40
51561491405801,14:19:21.491,16.3100,100
51571922713838,14:19:31.922,16.3100,100
51571929165592,14:19:31.929,16.3100,100
51571929212954,14:19:31.929,16.3100,100
51654129109512,14:20:54.129,16.3050,1
51654129109512,14:20:54.129,16.3100,65
51654129118400,14:20:54.129,16.3100,34
51654266028063,14:20:54.266,16.3100,1
51654729588484,14:20:54.729,16.3200,100
51663384437726,14:21:03.384,16.3300,4
51676845589256,14:21:16.845,16.3400,200
51676845589256,14:21:16.845,16.3400,200
51678793121155,14:21:18.793,16.3400,100
51688928830679,14:21:28.928,16.3300,100
51688929030003,14:21:28.929,16.3300,200
51688929135248,14:21:28.929,16.3300,100
51688929159935,14:21:28.929,16.3300,100
51688929159935,14:21:28.929,16.3300,196
51688929206877,14:21:28.929,16.3300,100
51705229060503,14:21:45.229,16.3400,200
51705229290955,14:21:45.229,16.3400,10
51760098509371,14:22:40.098,16.3500,100
51760098509371,14:22:40.098,16.3500,60
51760098736901,14:22:40.098,16.3500,90
51760098782450,14:22:40.098,16.3500,50
51760101685404,14:22:40.101,16.3500,100
51760964971275,14:22:40.964,16.3500,50
51864362802618,14:24:24.362,16.3500,50
51864362802618,14:24:24.362,16.3500,200
51892453721597,14:24:52.453,16.3500,100
51892453721597,14:24:52.453,16.3500,100
51892453721597,14:24:52.453,16.3500,100
51892453721597,14:24:52.453,16.3500,39
51892453750110,14:24:52.453,16.3500,161
51892453750110,14:24:52.453,16.3500,200
51892453750110,14:24:52.453,16.3500,159
51892453750110,14:24:52.453,16.3500,100
51892456790960,14:24:52.456,16.3500,100
51892490687038,14:24:52.490,16.3500,87
51892490687038,14:24:52.490,16.3500,13
51895490124433,14:24:55.490,16.3500,87
51915190803355,14:25:15.190,16.3450,9
51972450373423,14:26:12.450,16.3400,200
51972450373423,14:26:12.450,16.3400,176
51972450373423,14:26:12.450,16.3400,3
51972450373423,14:26:12.450,16.3400,4
51972450386862,14:26:12.450,16.3400,100
51999523601960,14:26:39.523,16.3300,25
51999523601960,14:26:39.523,16.3300,75
51999523629509,14:26:39.523,16.3300,25
51999523629509,14:26:39.523,16.3300,100
51999523629509,14:26:39.523,16.3300,200
52014717522067,14:26:54.717,16.3200,2
52014717522067,14:26:54.717,16.3200,100
52023013705809,14:27:03.013,16.3150,55
52023013921829,14:27:03.013,16.3150,36
52023013921829,14:27:03.013,16.3200,44
52023013939804,14:27:03.013,16.3200,10
52023013939804,14:27:03.013,16.3200,9
52023013944047,14:27:03.013,16.3200,74
52023489562205,14:27:03.489,16.3200,100
52078808584621,14:27:58.808,16.3100,196
52078808584621,14:27:58.808,16.3100,100
52078808584621,14:27:58.808,16.3100,200
52078808584621,14:27:58.808,16.3100,100
52078808584621,14:27:58.808,16.3100,100
52090891051889,14:28:10.891,16.3000,100
52143596637266,14:29:03.596,16.2900,200
52143620973319,14:29:03.620,16.3000,100
52143622342823,14:29:03.622,16.3000,100
52143622396926,14:29:03.622,16.3000,100
52143630200063,14:29:03.630,16.3000,100
52143630235963,14:29:03.630,16.3000,30
52190373355900,14:29:50.373,16.3100,100
52203360128347,14:30:03.360,16.3000,100
52203360128347,14:30:03.360,16.3000,100
52203360128347,14:30:03.360,16.3000,46
52203360145460,14:30:03.360,16.3000,92
52203360159166,14:30:03.360,16.3000,30
52203360159166,14:30:03.360,16.3000,1
52203360159166,14:30:03.360,16.3000,100
52203361195820,14:30:03.361,16.2900,100
52215200560593,14:30:15.200,16.2950,1
52230300077693,14:30:30.300,16.3000,96
52230300116154,14:30:30.300,16.3000,4
52277971017423,14:31:17.971,16.3100,400
52352256010990,14:32:32.256,16.3050,100
52352256155068,14:32:32.256,16.3100,84
52352256165500,14:32:32.256,16.3100,16
52352256696544,14:32:32.256,16.3100,100
52352257534121,14:32:32.257,16.3100,100
52352258975807,14:32:32.258,16.3100,100
52401236605672,14:33:21.236,16.3150,100
52401236605672,14:33:21.236,16.3200,100
52419156270684,14:33:39.156,16.3100,100
52419156298026,14:33:39.156,16.3100,100
52419156298026,14:33:39.156,16.3100,94
52419156336647,14:33:39.156,16.3100,6
52419156336647,14:33:39.156,16.3100,86
52419156462732,14:33:39.156,16.3100,14
52419156462732,14:33:39.156,16.3100,78
52419156491643,14:33:39.156,16.3100,22
52419368880682,14:33:39.368,16.3100,1
52435072031241,14:33:55.072,16.3100,64
52444787348215,14:34:04.787,16.3000,100
52444787348215,14:34:04.787,16.3000,82
52444791070609,14:34:04.791,16.3000,18
52444791070609,14:34:04.791,16.3000,74
52444791070609,14:34:04.791,16.3000,100
52444791070609,14:34:04.791,16.3000,100
52479162403371,14:34:39.162,16.3000,13
52479162403371,14:34:39.162,16.3000,100
52479163031446,14:34:39.163,16.3000,100
52497200251170,14:34:57.200,16.3100,100
52512448028012,14:35:12.448,16.3200,100
52512448053550,14:35:12.448,16.3200,100
52513098022878,14:35:13.098,16.3300,100
52517926787769,14:35:17.926,16.3300,100
52517941862475,14:35:17.941,16.3400,200
52517941862475,14:35:17.941,16.3400,100
52517941862475,14:35:17.941,16.3400,200
52517941889792,14:35:17.941,16.3400,100
52523101328283,14:35:23.101,16.3500,100
52523101328283,14:35:23.101,16.3500,200
52523101328283,14:35:23.101,16.3500,100
52523119521103,14:35:23.119,16.3600,100
52566357724501,14:36:06.357,16.3500,100
52566357724501,14:36:06.357,16.3500,100
52566357724501,14:36:06.357,16.3500,100
52566357724501,14:36:06.357,16.3500,200
52566357724501,14:36:06.357,16.3500,200
52566357724501,14:36:06.357,16.3500,25
52566361454911,14:36:06.361,16.3400,84
52566361487308,14:36:06.361,16.3400,116
52566361487308,14:36:06.361,16.3400,100
52566361487308,14:36:06.361,16.3400,100
52566361514013,14:36:06.361,16.3400,100
52572338429062,14:36:12.338,16.3300,100
52621462245061,14:37:01.462,16.3300,100
52628632384811,14:37:08.632,16.3300,100
52628962135182,14:37:08.962,16.3300,3
52628962135182,14:37:08.962,16.3300,97
52628962169911,14:37:08.962,16.3300,3
52641290274846,14:37:21.290,16.3300,100
52641290302981,14:37:21.290,16.3300,100
52725657451225,14:38:45.657,16.3500,100
52725657476879,14:38:45.657,16.3500,100
52785079526776,14:39:45.079,16.3700,200
52785079526776,14:39:45.079,16.3700,100
52785079564552,14:39:45.079,16.3700,100
52785080323158,14:39:45.080,16.3700,100
52793002570404,14:39:53.002,16.3750,6
52832017995541,14:40:32.017,16.3700,64
52832017995541,14:40:32.017,16.3700,36
52832017995541,14:40:32.017,16.3700,100
52832017995541,14:40:32.017,16.3700,200
52832017995541,14:40:32.017,16.3700,200
52832017995541,14:40:32.017,16.3700,100
52832017995541,14:40:32.017,16.3700,100
52835642538020,14:40:35.642,16.3650,100
52849020254473,14:40:49.020,16.3700,100
52849020254473,14:40:49.020,16.3700,100
52865635139530,14:41:05.635,16.3650,91
52865635139530,14:41:05.635,16.3700,200
52865635139530,14:41:05.635,16.3700,100
52865635139530,14:41:05.635,16.3700,9
52865635201475,14:41:05.635,16.3700,100
52865635580920,14:41:05.635,16.3700,82
52869222792023,14:41:09.222,16.3650,100
52880843429574,14:41:20.843,16.3700,100
52880843429574,14:41:20.843,16.3700,9
52880951241364,14:41:20.951,16.3800,100
52880951241364,14:41:20.951,16.3800,100
52973596332521,14:42:53.596,16.3900,100
52996104543867,14:43:16.104,16.3900,200
52996104543867,14:43:16.104,16.3900,33
52996104602338,14:43:16.104,16.3900,92
52996104653581,14:43:16.104,16.3900,92
52996104757605,14:43:16.104,16.3900,5
52996104784635,14:43:16.104,16.3900,78
52996104784635,14:43:16.104,16.3900,8
52996105469468,14:43:16.105,16.3900,92
53000718495861,14:43:20.718,16.3900,165
53000718781029,14:43:20.718,16.3900,35
53091015425191,14:44:51.015,16.4100,100
53091015425191,14:44:51.015,16.4100,4
53113813616169,14:45:13.813,16.4100,185
53188256067586,14:46:28.256,16.4100,100
53188256067586,14:46:28.256,16.4100,93
53188256102505,14:46:28.256,16.4100,85
53188256114776,14:46:28.256,16.4100,22
53213398262582,14:46:53.398,16.4200,100
53242217180347,14:47:22.217,16.4400,100
53242217180347,14:47:22.217,16.4400,100
53242217180347,14:47:22.217,16.4400,100
53242217180347,14:47:22.217,16.4400,200
53396335390194,14:49:56.335,16.4400,200
53396686476348,14:49:56.686,16.4400,1
53436403017953,14:50:36.403,16.4350,1
53452754214700,14:50:52.754,16.4400,100
53470727156687,14:51:10.727,16.4300,300
53470727156687,14:51:10.727,16.4300,171
53470727156687,14:51:10.727,16.4300,164
53471675153521,14:51:11.675,16.4300,100
53471675270337,14:51:11.675,16.4300,100
53523943754752,14:52:03.943,16.4400,100
53537260060665,14:52:17.260,16.4450,100
53537260060665,14:52:17.260,16.4500,200
53541335870111,14:52:21.335,16.4450,100
53541335870111,14:52:21.335,16.4500,200
53541335870111,14:52:21.335,16.4500,100
53542048032982,14:52:22.048,16.4450,100
53542048063670,14:52:22.048,16.4500,100
53542048063670,14:52:22.048,16.4500,100
53542048593705,14:52:22.048,16.4500,100
53542062690605,14:52:22.062,16.4500,100
53542064945751,14:52:22.064,16.4500,100
53553733631362,14:52:33.733,16.4550,100
53556321676495,14:52:36.321,16.4550,100
53556321676495,14:52:36.321,16.4600,100
53556321676495,14:52:36.321,16.4600,100
53556321731700,14:52:36.321,16.4600,35
53556323713825,14:52:36.323,16.4600,65
53587747830955,14:53:07.747,16.4550,100
53596845904820,14:53:16.845,16.4550,100
53596845904820,14:53:16.845,16.4600,2
53596845947596,14:53:16.845,16.4600,98
53596845947596,14:53:16.845,16.4600,2
53599394286872,14:53:19.394,16.4600,100
53611057645721,14:53:31.057,16.4600,100
53632308118770,14:53:52.308,16.4650,100
53652702572343,14:54:12.702,16.4700,100
53652702572343,14:54:12.702,16.4700,19
53652702572343,14:54:12.702,16.4700,200
53652702572343,14:54:12.702,16.4700,11
53668095531440,14:54:28.095,16.4750,100
53734727193253,14:55:34.727,16.4700,189
53734727193253,14:55:34.727,16.4700,100
53734727193253,14:55:34.727,16.4700,100
53734727193253,14:55:34.727,16.4700,175
53734727193253,14:55:34.727,16.4700,100
53734744861792,14:55:34.744,16.4650,100
53734744861792,14:55:34.744,16.4700,100
53734744924200,14:55:34.744,16.4700,100
53734744941560,14:55:34.744,16.4700,100
53734744955997,14:55:34.744,16.4700,100
53777642243625,14:56:17.642,16.4700,1
53777642243625,14:56:17.642,16.4700,100
53777642243625,14:56:17.642,16.4700,100
53777642732935,14:56:17.642,16.4700,100
53777645529327,14:56:17.645,16.4650,25
53789782248461,14:56:29.782,16.4650,75
53789782248461,14:56:29.782,16.4700,100
53789782248461,14:56:29.782,16.4700,28
53789783290707,14:56:29.783,16.4700,3
53804648530952,14:56:44.648,16.4650,100
53814396377781,14:56:54.396,16.4650,100
53822072905866,14:57:02.072,16.4600,44
53822072957250,14:57:02.072,16.4600,5
53822072966948,14:57:02.072,16.4600,51
53822072966948,14:57:02.072,16.4600,100
53822087190128,14:57:02.087,16.4500,100
53822087190128,14:57:02.087,16.4500,100
53822087190128,14:57:02.087,16.4500,100
53822087190128,14:57:02.087,16.4500,100
53822087345909,14:57:02.087,16.4450,100
53822092471120,14:57:02.092,16.4400,100
53822096017687,14:57:02.096,16.4400,100
53822096017687,14:57:02.096,16.4500,60
53887370480518,14:58:07.370,16.4350,100
53887377804141,14:58:07.377,16.4400,100
53887377804141,14:58:07.377,16.4400,3
53887380117578,14:58:07.380,16.4500,76
53887380117578,14:58:07.380,16.4500,69
53887380117578,14:58:07.380,16.4500,100
53887380117578,14:58:07.380,16.4500,100
53887381431320,14:58:07.381,16.4500,100
53911320410266,14:58:31.320,16.4550,100
53911320410266,14:58:31.320,16.4600,200
53934265612528,14:58:54.265,16.4550,100
53935660998718,14:58:55.660,16.4650,100
53979393959472,14:59:39.393,16.4600,100
53979394191918,14:59:39.394,16.4600,100
53979394321136,14:59:39.394,16.4600,100
54010816221996,15:00:10.816,16.4600,100
54010816221996,15:00:10.816,16.4600,100
54010816221996,15:00:10.816,16.4600,5
54010816221996,15:00:10.816,16.4600,100
54010816221996,15:00:10.816,16.4600,100
54017556506989,15:00:17.556,16.4550,3
54021732183451,15:00:21.732,16.4500,35
54021732183451,15:00:21.732,16.4500,1
54026959282970,15:00:26.959,16.4400,20
54037026130112,15:00:37.026,16.4400,5
54038405986888,15:00:38.405,16.4400,75
54038405986888,15:00:38.405,16.4400,25
54046111535927,15:00:46.111,16.4450,97
54046111535927,15:00:46.111,16.4500,35
54046111535927,15:00:46.111,16.4500,100
54046111535927,15:00:46.111,16.4500,100
54046111535927,15:00:46.111,16.4500,100
54046111535927,15:00:46.111,16.4500,3
54046111776162,15:00:46.111,16.4500,97
54046113248500,15:00:46.113,16.4500,100
54051595288006,15:00:51.595,16.4400,75
54051595288006,15:00:51.595,16.4400,25
54051595913563,15:00:51.595,16.4400,75
54051595913563,15:00:51.595,16.4400,100
54096187811432,15:01:36.187,16.4250,1
54096187811432,15:01:36.187,16.4300,97
54096187811432,15:01:36.187,16.4300,3
54096187811432,15:01:36.187,16.4300,100
54096187811432,15:01:36.187,16.4300,99
54123163452577,15:02:03.163,16.4200,1
54123163453159,15:02:03.163,16.4200,1
54203528568571,15:03:23.528,16.4200,100
54203528568571,15:03:23.528,16.4200,100
54203528568571,15:03:23.528,16.4200,100
54203528568571,15:03:23.528,16.4200,100
54203528568571,15:03:23.528,16.4200,1
54203529132917,15:03:23.529,16.4100,1
54203567489069,15:03:23.567,16.4100,99
54203567489069,15:03:23.567,16.4100,1
54203567514315,15:03:23.567,16.4100,4
54207084534692,15:03:27.084,16.4100,95
54249915543438,15:04:09.915,16.4000,100
54249915543438,15:04:09.915,16.4000,159
54294083239490,15:04:54.083,16.4000,100
54294083239490,15:04:54.083,16.4000,24
54294083239490,15:04:54.083,16.4000,100
54306454395656,15:05:06.454,16.4000,100
54306454395656,15:05:06.454,16.4000,100
54306454395656,15:05:06.454,16.4000,79
