timestamp,time,price,volume
34200956255129,09:30:00.956,0.0000,0
34310030603541,09:31:50.030,99.6800,100
34351783689561,09:32:31.783,99.6700,100
34351783748810,09:32:31.783,99.6900,8
34352162086093,09:32:32.162,99.7500,10
34352162644452,09:32:32.162,99.7700,92
34352162644452,09:32:32.162,99.7700,81
34354421008381,09:32:34.421,99.6100,98
34354421008381,09:32:34.421,99.6200,2
34355016646730,09:32:35.016,99.6200,98
34355016821746,09:32:35.016,99.6200,4
34358911706204,09:32:38.911,99.4800,100
34395033400560,09:33:15.033,99.4700,1
34402192280920,09:33:22.192,99.0300,100
34402192280920,09:33:22.192,99.0300,50
34402193353918,09:33:22.193,99.0600,80
34402193353918,09:33:22.193,99.0800,20
34402193379327,09:33:22.193,99.0800,80
34402193379327,09:33:22.193,99.0800,1
34402194874389,09:33:22.194,99.1700,100
34402194949259,09:33:22.194,99.1700,80
34402194949259,09:33:22.194,99.1700,20
34402195285244,09:33:22.195,99.1800,100
34402197046888,09:33:22.197,99.1800,10
34402197048324,09:33:22.197,99.1400,10
34402197604549,09:33:22.197,99.1800,10
34402197617313,09:33:22.197,99.1800,90
34403545196561,09:33:23.545,99.1200,100
34423740297884,09:33:43.740,98.9900,66
34423740297884,09:33:43.740,98.9900,34
34423740374269,09:33:43.740,98.9900,66
34423741208485,09:33:43.741,99.0400,10
34423741208485,09:33:43.741,99.0500,90
34423752528613,09:33:43.752,98.9900,10
34423816371987,09:33:43.816,98.9800,60
34440622022641,09:34:00.622,99.0400,72
34440622117569,09:34:00.622,99.0300,72
34461296767288,09:34:21.296,98.8800,100
34462457184379,09:34:22.457,98.8800,94
34462457609577,09:34:22.457,98.8800,106
34462457609577,09:34:22.457,98.8700,4
34462457811311,09:34:22.457,98.8700,6
34462457811311,09:34:22.457,98.8700,100
34462458967993,09:34:22.458,98.9000,100
34499800602029,09:34:59.800,98.8500,100
34499801162169,09:34:59.801,98.8500,100
34499801258006,09:34:59.801,98.8400,100
34499801368639,09:34:59.801,98.8800,100
34499820967364,09:34:59.820,98.8200,30
34530971222212,09:35:30.971,98.8200,70
34530989562040,09:35:30.989,98.7700,100
34546834394302,09:35:46.834,98.7800,100
34560719814519,09:36:00.719,98.8600,100
34560719814519,09:36:00.719,98.8600,100
34560720693422,09:36:00.720,98.9000,24
34560720693926,09:36:00.720,98.9000,76
34560720693926,09:36:00.720,98.9000,2
34561125555683,09:36:01.125,98.8600,55
34575822410365,09:36:15.822,98.8600,45
34583567145309,09:36:23.567,98.9400,100
34583567145309,09:36:23.567,98.9400,1
34583567145309,09:36:23.567,98.9400,100
34583568574826,09:36:23.568,98.9900,100
34583647227803,09:36:23.647,98.9900,5
34583647299491,09:36:23.647,98.9900,95
34583647732696,09:36:23.647,98.9900,100
34606786056799,09:36:46.786,99.0000,100
34606786125540,09:36:46.786,99.0000,62
34606786909780,09:36:46.786,98.9800,100
34606802926996,09:36:46.802,98.9800,100
34606843920785,09:36:46.843,99.0500,100
34606843920785,09:36:46.843,99.0700,100
34607462486396,09:36:47.462,99.1000,100
34607462783503,09:36:47.462,99.0800,100
34608015767550,09:36:48.015,99.1500,100
34608016051967,09:36:48.016,99.1400,100
34608016459461,09:36:48.016,99.1300,100
34608016518986,09:36:48.016,99.1300,100
34608016585170,09:36:48.016,99.1300,100
34608016592604,09:36:48.016,99.1300,100
34608016621611,09:36:48.016,99.1200,10
34608016621611,09:36:48.016,99.1200,90
34608017825814,09:36:48.017,99.1000,100
34608388934243,09:36:48.388,99.1100,44
34608389571165,09:36:48.389,99.1100,56
34608389571165,09:36:48.389,99.1100,10
34608482832887,09:36:48.482,99.1600,100
34609437165699,09:36:49.437,99.2100,100
34609704046795,09:36:49.704,99.2600,100
34609704046795,09:36:49.704,99.2600,100
34620775120530,09:37:00.775,99.2800,100
34620775764718,09:37:00.775,99.2200,100
34621695433016,09:37:01.695,99.2400,100
34651945056705,09:37:31.945,99.3500,80
34651945056705,09:37:31.945,99.3700,51
34651945056705,09:37:31.945,99.3700,20
34668338470849,09:37:48.338,99.3700,80
34668338470849,09:37:48.338,99.3700,51
34668338470849,09:37:48.338,99.3700,69
34668339876986,09:37:48.339,99.3700,31
34668340251471,09:37:48.340,99.3800,100
34668340269672,09:37:48.340,99.3800,100
34668340276411,09:37:48.340,99.3800,58
34668340853684,09:37:48.340,99.4000,100
34668505807303,09:37:48.505,99.4050,100
34668506617877,09:37:48.506,99.4000,5
34668506691768,09:37:48.506,99.4000,95
34668593524842,09:37:48.593,99.4100,100
34668831987545,09:37:48.831,99.3900,10
34709790245690,09:38:29.790,99.4100,100
34709790272688,09:38:29.790,99.4100,1
34709790272688,09:38:29.790,99.4100,100
34709790272688,09:38:29.790,99.4100,51
34709832395865,09:38:29.832,99.4500,100
34718358904659,09:38:38.358,99.4500,100
34718827818933,09:38:38.827,99.5000,51
34718827818933,09:38:38.827,99.5000,100
34718827818933,09:38:38.827,99.5000,100
34719397240968,09:38:39.397,99.5800,51
34719397240968,09:38:39.397,99.6000,49
34720236052772,09:38:40.236,99.5300,85
34720236539744,09:38:40.236,99.5300,15
34720236577047,09:38:40.236,99.5200,100
34720284166151,09:38:40.284,99.5300,100
34743202529265,09:39:03.202,99.5100,51
34743203003280,09:39:03.203,99.5450,100
34745142843254,09:39:05.142,99.6000,51
34745142912017,09:39:05.142,99.5700,100
34746033865996,09:39:06.033,99.5900,100
34746033865996,09:39:06.033,99.5900,100
34746033865996,09:39:06.033,99.5900,100
34746033949155,09:39:06.033,99.5600,100
34747204416221,09:39:07.204,99.5500,100
34747204494739,09:39:07.204,99.5500,100
34760798355044,09:39:20.798,99.5000,100
34760798355044,09:39:20.798,99.5000,67
34790699404843,09:39:50.699,99.3600,51
34790700523291,09:39:50.700,99.4300,100
34838650164045,09:40:38.650,99.4300,100
34838650767617,09:40:38.650,99.4300,100
34838738710451,09:40:38.738,99.4600,1
34838738710451,09:40:38.738,99.4600,51
34838740070577,09:40:38.740,99.4700,100
34838740070577,09:40:38.740,99.4800,21
34838745215679,09:40:38.745,99.4900,100
34838745215679,09:40:38.745,99.4900,21
34838745901745,09:40:38.745,99.4900,100
34838746405871,09:40:38.746,99.4700,100
34838746444759,09:40:38.746,99.4700,83
34838746456360,09:40:38.746,99.4700,17
34838750311100,09:40:38.750,99.4700,100
34838757678744,09:40:38.757,99.4300,100
34838757691481,09:40:38.757,99.4300,100
34838767058022,09:40:38.767,99.4700,200
34838775622455,09:40:38.775,99.4900,56
34860874080261,09:41:00.874,99.5500,15
34860874080261,09:41:00.874,99.5600,2
34860874080261,09:41:00.874,99.5600,85
34860874105084,09:41:00.874,99.5600,15
34860878382010,09:41:00.878,99.6300,100
34860878382010,09:41:00.878,99.6400,100
34860961609715,09:41:00.961,99.6400,51
34860962134856,09:41:00.962,99.6500,51
34860962134856,09:41:00.962,99.6500,49
34860962160689,09:41:00.962,99.6500,151
34860976013849,09:41:00.976,99.6900,200
34861055585719,09:41:01.055,99.7000,100
34861055585719,09:41:01.055,99.7000,100
34874777364376,09:41:14.777,99.6500,100
34874907340348,09:41:14.907,99.6600,100
34874916676127,09:41:14.916,99.7300,51
34874916751345,09:41:14.916,99.6800,100
34874927384309,09:41:14.927,99.6500,10
34874927416825,09:41:14.927,99.6600,100
34874927475372,09:41:14.927,99.6500,100
34874961151923,09:41:14.961,99.7000,100
34874961218643,09:41:14.961,99.6600,10
34874961218643,09:41:14.961,99.6500,90
34874961244991,09:41:14.961,99.6500,10
34874962775480,09:41:14.962,99.6500,100
34874975084197,09:41:14.975,99.7000,10
34927497195669,09:42:07.497,99.5650,100
34945012720833,09:42:25.012,99.5050,100
34945012720833,09:42:25.012,99.4500,300
34945013263061,09:42:25.013,99.4500,149
34945013889777,09:42:25.013,99.4800,100
34945013921589,09:42:25.013,99.4800,1
34945014021437,09:42:25.014,99.4800,25
34945014046621,09:42:25.014,99.4800,74
34945014046621,09:42:25.014,99.4800,100
34945014046621,09:42:25.014,99.4800,100
34945014046621,09:42:25.014,99.4800,100
34948271384802,09:42:28.271,99.5100,2
34962778691131,09:42:42.778,99.5200,100
34962778691131,09:42:42.778,99.5300,87
34962778705510,09:42:42.778,99.5300,13
34962778705510,09:42:42.778,99.5300,87
34962778709115,09:42:42.778,99.5300,113
34962778710619,09:42:42.778,99.5300,100
34962778737470,09:42:42.778,99.5300,100
34962779084854,09:42:42.779,99.5400,13
34962779257935,09:42:42.779,99.5400,87
34962779257935,09:42:42.779,99.5400,13
34962779257935,09:42:42.779,99.5400,30
34962779284415,09:42:42.779,99.5400,70
34962779318549,09:42:42.779,99.5500,30
34962779342471,09:42:42.779,99.5500,70
34962798034541,09:42:42.798,99.5450,100
34962799035111,09:42:42.799,99.5100,100
34962799181904,09:42:42.799,99.5100,100
34962835538428,09:42:42.835,99.5100,100
34962927707905,09:42:42.927,99.5800,100
34962928741807,09:42:42.928,99.5400,100
34972500668158,09:42:52.500,99.5900,100
34975586638550,09:42:55.586,99.5900,100
34975586696679,09:42:55.586,99.5900,100
34991596317273,09:43:11.596,99.6900,100
34993289720062,09:43:13.289,99.7050,100
35005124065491,09:43:25.124,99.7100,300
35005124065491,09:43:25.124,99.7100,100
35005127391185,09:43:25.127,99.7000,100
35005127500616,09:43:25.127,99.7000,100
35005127602579,09:43:25.127,99.7000,100
35005127693875,09:43:25.127,99.7000,100
35005127978440,09:43:25.127,99.7000,100
35005127978440,09:43:25.127,99.7000,200
35005128136207,09:43:25.128,99.7000,4
35005128182437,09:43:25.128,99.7000,96
35005128735845,09:43:25.128,99.7000,100
35005129048909,09:43:25.129,99.7000,100
35005247928166,09:43:25.247,99.7000,51
35005247928166,09:43:25.247,99.7000,100
35005247928166,09:43:25.247,99.7000,49
35005248013110,09:43:25.248,99.7000,100
35005384664411,09:43:25.384,99.7000,83
35005511491603,09:43:25.511,99.7000,17
35005511491603,09:43:25.511,99.7000,100
35005511491603,09:43:25.511,99.7000,351
35008567436356,09:43:28.567,99.7300,10
35008567436356,09:43:28.567,99.7300,22
35021553798018,09:43:41.553,99.6700,100
35021553820765,09:43:41.553,99.6600,100
35021553820765,09:43:41.553,99.6600,68
35021553833036,09:43:41.553,99.6600,32
35021553846782,09:43:41.553,99.6500,100
35021553846782,09:43:41.553,99.6500,50
35021554285848,09:43:41.554,99.6300,100
35025474385002,09:43:45.474,99.6700,51
35030015754808,09:43:50.015,99.7100,2
35030015784056,09:43:50.015,99.7200,51
35030016340560,09:43:50.016,99.7300,1
35033622548999,09:43:53.622,99.7600,100
35033622612177,09:43:53.622,99.7700,99
35116043252346,09:45:16.043,99.5200,1
35116043252346,09:45:16.043,99.5200,100
35116043252346,09:45:16.043,99.5200,2
35116043285965,09:45:16.043,99.5200,88
35116043285965,09:45:16.043,99.5200,100
35149724633560,09:45:49.724,99.6400,1
35154367517635,09:45:54.367,99.5800,5
35183864199431,09:46:23.864,99.6600,25
35195900707834,09:46:35.900,99.6200,61
35195900947391,09:46:35.900,99.6100,85
35224812586086,09:47:04.812,99.6300,5
35224812598158,09:47:04.812,99.6200,20
35235733492840,09:47:15.733,99.5800,7
35237929315616,09:47:17.929,99.6600,100
35237929315616,09:47:17.929,99.6600,1
35237929315616,09:47:17.929,99.6600,51
35237929429055,09:47:17.929,99.6300,100
35237930062342,09:47:17.930,99.6600,100
35238039689581,09:47:18.039,99.6700,100
35238040759521,09:47:18.040,99.6700,100
35252085041050,09:47:32.085,99.6600,5
35252085041050,09:47:32.085,99.6600,21
35259610526449,09:47:39.610,99.6100,5
35259610526449,09:47:39.610,99.6100,200
35259610526449,09:47:39.610,99.6100,1
35264900643473,09:47:44.900,99.6000,50
35264900643473,09:47:44.900,99.6000,50
35269755827318,09:47:49.755,99.6500,200
35285213834530,09:48:05.213,99.6500,200
35285213834530,09:48:05.213,99.6500,57
35285213834530,09:48:05.213,99.6500,57
35285213834530,09:48:05.213,99.6500,100
35285213834530,09:48:05.213,99.6500,1
35285213834530,09:48:05.213,99.6500,200
35285213834530,09:48:05.213,99.6500,100
35285213916791,09:48:05.213,99.6600,28
35285275545819,09:48:05.275,99.6600,100
35287355824298,09:48:07.355,99.6200,100
35287701675006,09:48:07.701,99.5900,100
35302520848991,09:48:22.520,99.6000,56
35302520882873,09:48:22.520,99.6000,44
35302520882873,09:48:22.520,99.6100,44
35302521054516,09:48:22.521,99.6100,56
35302521054516,09:48:22.521,99.6100,14
35302521063894,09:48:22.521,99.6100,30
35302521063894,09:48:22.521,99.6100,44
35302521091353,09:48:22.521,99.6100,56
35302521177285,09:48:22.521,99.6100,100
35302521340630,09:48:22.521,99.6000,10
35302521340630,09:48:22.521,99.6000,90
35302521389142,09:48:22.521,99.6000,10
35302521389142,09:48:22.521,99.6000,50
35302521389142,09:48:22.521,99.5900,40
35302521581883,09:48:22.521,99.5900,60
35302521594389,09:48:22.521,99.6100,10
35302521594389,09:48:22.521,99.6100,40
35302522101242,09:48:22.522,99.6000,60
35303016833801,09:48:23.016,99.6100,60
35303287062858,09:48:23.287,99.6100,11
35303299628418,09:48:23.299,99.6100,80
35307387166570,09:48:27.387,99.6600,15
35307397306240,09:48:27.397,99.6200,100
35307397320660,09:48:27.397,99.6100,5
35307443972767,09:48:27.443,99.6000,50
35307443972767,09:48:27.443,99.6000,50
35321606118309,09:48:41.606,99.5800,50
35321606118309,09:48:41.606,99.5900,53
35321606118309,09:48:41.606,99.5900,100
35321606445224,09:48:41.606,99.6100,53
35321606445224,09:48:41.606,99.6100,33
35330634602025,09:48:50.634,99.6200,100
35330638101200,09:48:50.638,99.5900,100
35330638113812,09:48:50.638,99.5800,100
35330639410535,09:48:50.639,99.5800,100
35330655253427,09:48:50.655,99.5800,100
35330655542445,09:48:50.655,99.5800,95
35330666520440,09:48:50.666,99.5800,52
35349585688789,09:49:09.585,99.6000,47
35349585688789,09:49:09.585,99.6000,100
35349585688789,09:49:09.585,99.6100,100
35359203625660,09:49:19.203,99.6400,100
35359203894980,09:49:19.203,99.6600,45
35359204701402,09:49:19.204,99.6600,40
35360472461601,09:49:20.472,99.6800,100
35366566719044,09:49:26.566,99.7200,56
35366566719044,09:49:26.566,99.7200,44
35366566745532,09:49:26.566,99.7200,7
35366566745532,09:49:26.566,99.7200,64
35366568015900,09:49:26.568,99.7400,100
35380168583591,09:49:40.168,99.7600,50
35380229482789,09:49:40.229,99.7700,100
35380229482789,09:49:40.229,99.7700,50
35382056611305,09:49:42.056,99.7400,4
35382057006172,09:49:42.057,99.7400,5
35402725221803,09:50:02.725,99.7800,1
35402725221803,09:50:02.725,99.7800,1
35402726335061,09:50:02.726,99.7900,30
35402726363074,09:50:02.726,99.7900,82
35414349080083,09:50:14.349,99.8100,43
35423136706253,09:50:23.136,99.8000,51
35423136983050,09:50:23.136,99.8000,49
35423136983050,09:50:23.136,99.7800,9
35423250328396,09:50:23.250,99.8100,100
35426994321695,09:50:26.994,99.7800,100
35431729413900,09:50:31.729,99.7700,41
35431730609028,09:50:31.730,99.7700,9
35431983026125,09:50:31.983,99.7900,5
35433725226419,09:50:33.725,99.7700,100
35434765511994,09:50:34.765,99.7900,50
35434780413964,09:50:34.780,99.7900,70
35435888382030,09:50:35.888,99.7400,100
35435889925112,09:50:35.889,99.7300,200
35435889925112,09:50:35.889,99.7300,100
35435889966921,09:50:35.889,99.7300,100
35435894191280,09:50:35.894,99.7300,8
35435894230403,09:50:35.894,99.7300,92
35439272818036,09:50:39.272,99.7600,30
35443044072663,09:50:43.044,99.7300,47
35443044072663,09:50:43.044,99.7200,50
35443044072663,09:50:43.044,99.7200,3
35446727264573,09:50:46.727,99.7700,100
35446727264573,09:50:46.727,99.7700,56
35449909440599,09:50:49.909,99.7600,200
35449909440599,09:50:49.909,99.7600,100
35453113855281,09:50:53.113,99.7500,100
35453113855281,09:50:53.113,99.7500,100
35459146139422,09:50:59.146,99.7400,50
35459146139422,09:50:59.146,99.7500,50
35461864540424,09:51:01.864,99.7500,50
35461866165913,09:51:01.866,99.7700,100
35461866165913,09:51:01.866,99.7700,70
35461866165913,09:51:01.866,99.7700,100
35461866279820,09:51:01.866,99.7500,100
35461867481359,09:51:01.867,99.7800,2
35461867481359,09:51:01.867,99.7800,98
35470098604817,09:51:10.098,99.7800,2
35470559850096,09:51:10.559,99.7700,52
35483552664738,09:51:23.552,99.7500,100
35486004043243,09:51:26.004,99.7400,100
35486004043243,09:51:26.004,99.7300,2
35486004868904,09:51:26.004,99.7200,55
35490109000736,09:51:30.109,99.7500,100
35490740976830,09:51:30.740,99.7200,45
35490740976830,09:51:30.740,99.7200,55
35491713122534,09:51:31.713,99.7200,4
35492322258921,09:51:32.322,99.7200,2
35492617324429,09:51:32.617,99.7200,45
35493024238708,09:51:33.024,99.7300,100
35494776119712,09:51:34.776,99.7500,100
35500189020916,09:51:40.189,99.7400,100
35500331184594,09:51:40.331,99.7500,11
35500331184594,09:51:40.331,99.7600,11
35500331184594,09:51:40.331,99.7800,78
35507765633290,09:51:47.765,99.7900,100
35507766546262,09:51:47.766,99.7900,1
35507766546262,09:51:47.766,99.7900,100
35508675291734,09:51:48.675,99.8400,200
35508675463283,09:51:48.675,99.8200,100
35511438632299,09:51:51.438,99.8000,100
35511438649729,09:51:51.438,99.8000,51
35511438965799,09:51:51.438,99.8100,51
35513470870027,09:51:53.470,99.8500,1
35513471154731,09:51:53.471,99.8500,99
35513471154731,09:51:53.471,99.8300,1
35520244826969,09:52:00.244,99.8600,100
35521137211082,09:52:01.137,99.8600,1
35521137211082,09:52:01.137,99.8600,99
35525554888497,09:52:05.554,99.8000,100
35530860474693,09:52:10.860,99.7900,90
35530861195716,09:52:10.861,99.7900,10
35530861195716,09:52:10.861,99.7900,100
35533183711878,09:52:13.183,99.7900,51
35533183742608,09:52:13.183,99.7800,100
35533183745663,09:52:13.183,99.7800,100
35533184227646,09:52:13.184,99.7800,100
35533184261481,09:52:13.184,99.7800,10
35533277192052,09:52:13.277,99.7700,1
35533287410155,09:52:13.287,99.7700,9
35533824443202,09:52:13.824,99.7500,100
35534309614351,09:52:14.309,99.7500,100
35542290890258,09:52:22.290,99.7500,100
35543831867999,09:52:23.831,99.7500,100
35543832219083,09:52:23.832,99.7500,100
35544367978529,09:52:24.367,99.7400,100
35544734555681,09:52:24.734,99.7400,100
35544734580279,09:52:24.734,99.7400,5
35544734581579,09:52:24.734,99.7400,5
35544734585653,09:52:24.734,99.7400,5
35544734600636,09:52:24.734,99.7400,5
35544734615433,09:52:24.734,99.7400,5
35544734671506,09:52:24.734,99.7400,95
35544734790413,09:52:24.734,99.7400,5
35544735008620,09:52:24.735,99.7400,5
35544735244910,09:52:24.735,99.7400,90
35544735244910,09:52:24.735,99.7400,10
35545021354539,09:52:25.021,99.7400,100
35545647764157,09:52:25.647,99.7500,51
35550975902108,09:52:30.975,99.7400,25
35550976157694,09:52:30.976,99.7400,75
35550976157694,09:52:30.976,99.7400,100
35552069424443,09:52:32.069,99.7400,6
35559611766714,09:52:39.611,99.7500,100
35561706888892,09:52:41.706,99.7400,94
35561706888892,09:52:41.706,99.7400,6
35588242186756,09:53:08.242,99.7400,100
35588242186756,09:53:08.242,99.7400,100
35588242685198,09:53:08.242,99.7400,100
35588242843304,09:53:08.242,99.7400,100
35588243967620,09:53:08.243,99.7400,100
35588292452135,09:53:08.292,99.7400,100
35588292813143,09:53:08.292,99.7300,100
35588292813143,09:53:08.292,99.7300,100
35588293131575,09:53:08.293,99.7300,100
35588312843072,09:53:08.312,99.7300,51
35588340829371,09:53:08.340,99.7300,49
35590168828175,09:53:10.168,99.7100,26
35590168903354,09:53:10.168,99.7200,130
35590168928239,09:53:10.168,99.7200,3
35590168958230,09:53:10.168,99.7200,100
35590168978006,09:53:10.168,99.7200,67
35590196255726,09:53:10.196,99.7000,51
35601042783752,09:53:21.042,99.7800,77
35610476580871,09:53:30.476,99.7200,100
35614338038434,09:53:34.338,99.7000,100
35614339463050,09:53:34.339,99.7100,5
35616129893271,09:53:36.129,99.6900,100
35620615297893,09:53:40.615,99.6900,100
35620616076451,09:53:40.616,99.7000,21
35625295770566,09:53:45.295,99.7200,100
35632200838885,09:53:52.200,99.7600,100
35632200838885,09:53:52.200,99.7600,46
35664190085674,09:54:24.190,99.7600,2
35664202746894,09:54:24.202,99.7600,4
35664207280657,09:54:24.207,99.7600,3
35664221567823,09:54:24.221,99.7600,2
35664231434822,09:54:24.231,99.7600,1
35664231825118,09:54:24.231,99.7600,1
35664232913377,09:54:24.232,99.7600,1
35664234228047,09:54:24.234,99.7600,1
35664240412533,09:54:24.240,99.7600,1
35664247039371,09:54:24.247,99.7600,1
35664252248551,09:54:24.252,99.7600,1
35664259079738,09:54:24.259,99.7600,1
35664278377532,09:54:24.278,99.7600,2
35664283275826,09:54:24.283,99.7600,2
35664287815900,09:54:24.287,99.7600,2
35664374512370,09:54:24.374,99.7600,4
35664374512370,09:54:24.374,99.7600,3
35664374512370,09:54:24.374,99.7800,93
35664374514639,09:54:24.374,99.7800,7
35696915225519,09:54:56.915,99.7900,51
35696915225519,09:54:56.915,99.7900,51
35723592955797,09:55:23.592,99.7900,40
35730327611971,09:55:30.327,99.7500,100
35730327620548,09:55:30.327,99.7400,100
35730327620548,09:55:30.327,99.7400,25
35730327621405,09:55:30.327,99.7400,27
35730327892801,09:55:30.327,99.7400,5
35730327918025,09:55:30.327,99.7400,43
35730327918025,09:55:30.327,99.7400,100
35730327918025,09:55:30.327,99.7400,100
35730599307703,09:55:30.599,99.7400,10
35731438633295,09:55:31.438,99.7400,100
35731438633295,09:55:31.438,99.7300,100
35731438741547,09:55:31.438,99.7300,100
35731439050081,09:55:31.439,99.7300,100
35740154177729,09:55:40.154,99.7900,1
35748687288322,09:55:48.687,99.8100,5
35749283625658,09:55:49.283,99.8500,51
35749283625658,09:55:49.283,99.8500,51
35749284020959,09:55:49.284,99.8600,51
35749284020959,09:55:49.284,99.8600,49
35749284050704,09:55:49.284,99.8600,2
35749840352371,09:55:49.840,99.8800,100
35749842660373,09:55:49.842,99.8700,100
35751536201247,09:55:51.536,99.8800,195
35752379380103,09:55:52.379,99.8600,100
35752379380103,09:55:52.379,99.8600,100
35752388073023,09:55:52.388,99.8500,4
35752430506466,09:55:52.430,99.8500,100
35771777817372,09:56:11.777,99.8000,51
35771908930865,09:56:11.908,99.8000,100
35772209703192,09:56:12.209,99.8000,62
35772209728823,09:56:12.209,99.8000,38
35772209728823,09:56:12.209,99.8000,10
35772209728823,09:56:12.209,99.8000,10
35772945878157,09:56:12.945,99.8000,100
35772945878157,09:56:12.945,99.8000,10
35772945878157,09:56:12.945,99.8000,100
35772945928909,09:56:12.945,99.8000,100
35772949705823,09:56:12.949,99.7800,100
35773669469701,09:56:13.669,99.7800,51
35795027302698,09:56:35.027,99.8000,100
35802842150424,09:56:42.842,99.7800,18
35818952988302,09:56:58.952,99.8300,100
35829476052627,09:57:09.476,99.8500,5
35833755527883,09:57:13.755,99.8400,3
35833761627966,09:57:13.761,99.8400,2
35833762377947,09:57:13.762,99.8400,2
35833768707543,09:57:13.768,99.8400,3
35833799634842,09:57:13.799,99.8400,2
35833820591055,09:57:13.820,99.8400,3
35833824925032,09:57:13.824,99.8400,1
35833829709483,09:57:13.829,99.8400,3
35833835163316,09:57:13.835,99.8400,1
35833841400143,09:57:13.841,99.8400,1
35833842005969,09:57:13.842,99.8400,1
35833848642568,09:57:13.848,99.8400,1
35833859456591,09:57:13.859,99.8400,1
35833877336709,09:57:13.877,99.8400,1
35833881835559,09:57:13.881,99.8400,2
35833886118498,09:57:13.886,99.8400,4
35833891665037,09:57:13.891,99.8400,3
35833899266832,09:57:13.899,99.8400,1
35833899817262,09:57:13.899,99.8400,1
35833902212900,09:57:13.902,99.8400,1
35833913302652,09:57:13.913,99.8400,2
35833928977375,09:57:13.928,99.8400,3
35833934112090,09:57:13.934,99.8400,1
35833938156243,09:57:13.938,99.8400,2
35833944268678,09:57:13.944,99.8400,1
35848559240413,09:57:28.559,99.8600,5
35862894562222,09:57:42.894,99.8600,100
35862894949375,09:57:42.894,99.8900,1
35862897589905,09:57:42.897,99.8800,100
35871641041959,09:57:51.641,99.8800,10
35883110394579,09:58:03.110,99.8800,50
35890179281890,09:58:10.179,99.8600,5
35890179284795,09:58:10.179,99.8600,70
35890179445781,09:58:10.179,99.8400,5
35890179720486,09:58:10.179,99.8300,5
35890180538649,09:58:10.180,99.8200,100
35899690990784,09:58:19.690,99.7600,9
35902333434125,09:58:22.333,99.7600,91
35966439141393,09:59:26.439,99.7100,100
35966439141393,09:59:26.439,99.7100,100
35999071019355,09:59:59.071,99.6800,68
35999071019355,09:59:59.071,99.6800,32
35999071253424,09:59:59.071,99.6800,68
35999071253424,09:59:59.071,99.6800,1
35999072021970,09:59:59.072,99.7100,20
36007415592113,10:00:07.415,99.7300,18
36007415616459,10:00:07.415,99.7300,82
36086837102753,10:01:26.837,99.6000,51
36087147950393,10:01:27.147,99.6000,49
36087147950393,10:01:27.147,99.6000,100
36087148044257,10:01:27.148,99.6000,100
36087148145160,10:01:27.148,99.6000,100
36087148225825,10:01:27.148,99.6000,14
36116241205749,10:01:56.241,99.5500,98
36120025290367,10:02:00.025,99.5500,6
36123643591349,10:02:03.643,99.5500,44
36123643591349,10:02:03.643,99.5400,56
36123643616902,10:02:03.643,99.5400,44
36126700569816,10:02:06.700,99.5400,28
36133732188456,10:02:13.732,99.5400,72
36149429469252,10:02:29.429,99.5000,1
36149429469252,10:02:29.429,99.5000,7
36149429746339,10:02:29.429,99.5100,7
36166690078852,10:02:46.690,99.4000,100
36166691079097,10:02:46.691,99.4000,100
36166691079097,10:02:46.691,99.4000,20
36166691691624,10:02:46.691,99.4000,50
36166691691624,10:02:46.691,99.4000,100
36166700423409,10:02:46.700,99.3900,100
36176449342233,10:02:56.449,99.4300,33
36189650305371,10:03:09.650,99.3700,65
36199992022464,10:03:19.992,99.4000,100
36199992022464,10:03:19.992,99.4000,50
36199992022464,10:03:19.992,99.4100,100
36233229201802,10:03:53.229,99.3600,89
36233229213422,10:03:53.229,99.3600,11
36237133867696,10:03:57.133,99.4000,51
36237133867696,10:03:57.133,99.4000,49
36237133943946,10:03:57.133,99.4000,51
36237135500538,10:03:57.135,99.4100,100
36241229251234,10:04:01.229,99.4300,100
36241229430719,10:04:01.229,99.4400,100
36267844911870,10:04:27.844,99.3800,93
36267844937987,10:04:27.844,99.3800,7
36267844937987,10:04:27.844,99.3800,4
36267844939017,10:04:27.844,99.3800,7
36267844939508,10:04:27.844,99.3800,7
36267844941787,10:04:27.844,99.3800,7
36267844956498,10:04:27.844,99.3800,7
36267844964682,10:04:27.844,99.3800,44
36267845046997,10:04:27.845,99.3800,100
36267845095726,10:04:27.845,99.3800,50
36267845122690,10:04:27.845,99.3800,50
36267845151580,10:04:27.845,99.3800,7
36267845209234,10:04:27.845,99.3800,17
36267845311458,10:04:27.845,99.3700,100
36267845368746,10:04:27.845,99.3700,100
36267845425934,10:04:27.845,99.3700,100
36267845515792,10:04:27.845,99.3700,100
36267847868640,10:04:27.847,99.3800,200
36267848008608,10:04:27.848,99.3600,10
36267986476318,10:04:27.986,99.3600,10
36270029775886,10:04:30.029,99.3400,100
36270031471107,10:04:30.031,99.3400,100
36270049118447,10:04:30.049,99.3400,100
36270050618322,10:04:30.050,99.3400,100
36270050618322,10:04:30.050,99.3400,100
36270055879558,10:04:30.055,99.3400,100
36270057026790,10:04:30.057,99.3400,31
36270129191533,10:04:30.129,99.3200,15
36270835995024,10:04:30.835,99.3500,7
36270835995024,10:04:30.835,99.3600,100
36270835995024,10:04:30.835,99.3600,100
36270835995024,10:04:30.835,99.3600,1
36270836703141,10:04:30.836,99.3700,100
36300261946843,10:05:00.261,99.3550,2
36300261946843,10:05:00.261,99.3550,2
36300261946843,10:05:00.261,99.3550,4
36300261946843,10:05:00.261,99.3550,2
36300261946843,10:05:00.261,99.3550,1
36300261946843,10:05:00.261,99.3550,2
36300261946843,10:05:00.261,99.3800,87
36300262042190,10:05:00.262,99.3800,13
36300262042190,10:05:00.262,99.3800,51
36300262198792,10:05:00.262,99.3900,51
36304100477769,10:05:04.100,99.3950,2
36304100477769,10:05:04.100,99.3950,4
36304100477769,10:05:04.100,99.3950,1
36304100477769,10:05:04.100,99.3950,2
36304100477769,10:05:04.100,99.3950,3
36304100477769,10:05:04.100,99.3950,3
36304100477769,10:05:04.100,99.3950,1
36304100477769,10:05:04.100,99.3950,1
36304100477769,10:05:04.100,99.3950,3
36304100477769,10:05:04.100,99.3950,1
36304100477769,10:05:04.100,99.3950,1
36304100477769,10:05:04.100,99.3950,1
36304100477769,10:05:04.100,99.3950,3
36304100477769,10:05:04.100,99.3950,1
36304100477769,10:05:04.100,99.3950,1
36304100477769,10:05:04.100,99.3950,1
36304100477769,10:05:04.100,99.3950,2
36304100477769,10:05:04.100,99.3950,1
36304100477769,10:05:04.100,99.3950,1
36304100477769,10:05:04.100,99.3950,1
36304100477769,10:05:04.100,99.3950,4
36304100477769,10:05:04.100,99.3950,2
36304100477769,10:05:04.100,99.3950,1
36308977808045,10:05:08.977,99.3900,1
36311931434957,10:05:11.931,99.3600,100
36311931852931,10:05:11.931,99.3600,29
36311932868982,10:05:11.932,99.3600,71
36311932868982,10:05:11.932,99.3600,29
36311932919931,10:05:11.932,99.3600,71
36311933016663,10:05:11.933,99.3700,100
36311937314745,10:05:11.937,99.3700,10
36311938114724,10:05:11.938,99.3600,100
36311938311034,10:05:11.938,99.3600,100
36311938523740,10:05:11.938,99.3600,100
36312001646791,10:05:12.001,99.3700,51
36312001646791,10:05:12.001,99.3700,11
36312001673545,10:05:12.001,99.3700,89
36312153398593,10:05:12.153,99.3700,100
36317335556871,10:05:17.335,99.3600,100
36317335556871,10:05:17.335,99.3600,100
36317346223699,10:05:17.346,99.3500,100
36317349454260,10:05:17.349,99.3600,52
36317349454260,10:05:17.349,99.3600,48
36317349480361,10:05:17.349,99.3600,52
36317349532918,10:05:17.349,99.3700,100
36317350479753,10:05:17.350,99.3800,52
36322115508100,10:05:22.115,99.4000,100
36322116655025,10:05:22.116,99.4100,9
36326469351194,10:05:26.469,99.3700,51
36333294495199,10:05:33.294,99.4100,1
36333886617963,10:05:33.886,99.4100,74
36337317979035,10:05:37.317,99.4100,24
36337318689275,10:05:37.318,99.4200,24
36337318689275,10:05:37.318,99.4200,100
36361200604487,10:06:01.200,99.4400,100
36361202072301,10:06:01.202,99.4500,100
36361202838795,10:06:01.202,99.4600,100
36365889424829,10:06:05.889,99.4800,9
36365889919180,10:06:05.889,99.4800,100
36367682300530,10:06:07.682,99.4700,100
36367682325774,10:06:07.682,99.4700,100
36367694424507,10:06:07.694,99.4800,100
36367694449877,10:06:07.694,99.4800,100
36367903117124,10:06:07.903,99.4900,51
36370281208683,10:06:10.281,99.5100,10
36376705254154,10:06:16.705,99.5100,90
36385908878581,10:06:25.908,99.5200,7
36385908902531,10:06:25.908,99.5200,93
36399174379791,10:06:39.174,99.4700,100
36403107032463,10:06:43.107,99.4600,100
36403107134191,10:06:43.107,99.4600,100
36403427242900,10:06:43.427,99.4600,100
36403689735584,10:06:43.689,99.4600,1
36406454891428,10:06:46.454,99.4600,12
36407984767224,10:06:47.984,99.4400,100
36407984767224,10:06:47.984,99.4400,100
36408451150077,10:06:48.451,99.4400,100
36408451573444,10:06:48.451,99.4400,3
36408451581075,10:06:48.451,99.4400,1
36409544712052,10:06:49.544,99.4400,96
36420080398567,10:07:00.080,99.4000,100
36428345195448,10:07:08.345,99.3800,200
36428345195448,10:07:08.345,99.3800,100
36428346641945,10:07:08.346,99.3900,100
36428346735820,10:07:08.346,99.3900,100
36428346801710,10:07:08.346,99.3900,21
36437359183494,10:07:17.359,99.3600,50
36437359183494,10:07:17.359,99.3500,100
36437359183494,10:07:17.359,99.3500,50
36437359223143,10:07:17.359,99.3500,50
36439164764716,10:07:19.164,99.3800,50
36439164764716,10:07:19.164,99.3800,100
36439164764716,10:07:19.164,99.3800,100
36439164764716,10:07:19.164,99.3900,200
36439164764716,10:07:19.164,99.3900,73
36439164764716,10:07:19.164,99.3900,100
36439164764716,10:07:19.164,99.3900,21
36439164764716,10:07:19.164,99.3900,1000
36439168716581,10:07:19.168,99.4000,100
36439168766432,10:07:19.168,99.4000,100
36439168778240,10:07:19.168,99.4000,100
36439168845200,10:07:19.168,99.4000,100
36452754718903,10:07:32.754,99.3700,49
36452761589242,10:07:32.761,99.3600,100
36454162814388,10:07:34.162,99.3500,100
36454207423327,10:07:34.207,99.3400,100
36454245965062,10:07:34.245,99.3400,100
36454790213019,10:07:34.790,99.3500,51
36454790672523,10:07:34.790,99.3400,100
36454790672523,10:07:34.790,99.3400,10
36454790697726,10:07:34.790,99.3400,10
36454790745421,10:07:34.790,99.3400,10
36454790928380,10:07:34.790,99.3400,10
36454791111295,10:07:34.791,99.3400,80
36454791111295,10:07:34.791,99.3400,20
36454791412588,10:07:34.791,99.3400,80
36455025349321,10:07:35.025,99.3400,100
36455173212751,10:07:35.173,99.3500,1
36455922277759,10:07:35.922,99.3500,9
36455922277759,10:07:35.922,99.3500,9
36455922277759,10:07:35.922,99.3500,10
36455922277759,10:07:35.922,99.3500,10
36455922277759,10:07:35.922,99.3500,8
36455922910763,10:07:35.922,99.3500,92
36455922934653,10:07:35.922,99.3500,8
36456416693800,10:07:36.416,99.3400,100
36456417179779,10:07:36.417,99.3400,100
36456417179779,10:07:36.417,99.3400,100
36456417510928,10:07:36.417,99.3400,100
36456417869325,10:07:36.417,99.3400,100
36456417973777,10:07:36.417,99.3400,100
36456419056088,10:07:36.419,99.3400,100
36456419056088,10:07:36.419,99.3400,100
36456419201467,10:07:36.419,99.3400,100
36456420613780,10:07:36.420,99.3300,100
36457568748782,10:07:37.568,99.3300,100
36457568748782,10:07:37.568,99.3300,33
36457568748782,10:07:37.568,99.3300,100
36457568748782,10:07:37.568,99.3300,100
36457568748782,10:07:37.568,99.3300,100
36457568748782,10:07:37.568,99.3300,100
36457568748782,10:07:37.568,99.3300,100
36457568748782,10:07:37.568,99.3300,100
36457568748782,10:07:37.568,99.3300,100
36457569250153,10:07:37.569,99.3400,100
36457569274849,10:07:37.569,99.3400,100
36460377445897,10:07:40.377,99.3700,100
36460377445897,10:07:40.377,99.3700,19
36460377445897,10:07:40.377,99.3700,100
36460377445897,10:07:40.377,99.3700,100
36460377445897,10:07:40.377,99.3700,100
36460377445897,10:07:40.377,99.3700,100
36460377445897,10:07:40.377,99.3700,100
36460377445897,10:07:40.377,99.3700,100
36460377445897,10:07:40.377,99.3700,100
36460377445897,10:07:40.377,99.3700,100
36460378163775,10:07:40.378,99.3800,100
36461021102741,10:07:41.021,99.3600,100
36494098757617,10:08:14.098,99.3000,4
36494109920378,10:08:14.109,99.3000,1
36494110081995,10:08:14.110,99.3000,1
36494110187899,10:08:14.110,99.3000,1
36494110262998,10:08:14.110,99.3000,1
36495000214495,10:08:15.000,99.3000,92
36495889231141,10:08:15.889,99.2700,21
36495889577166,10:08:15.889,99.2800,21
36495889577166,10:08:15.889,99.2800,100
36495921617896,10:08:15.921,99.3200,100
36495921617896,10:08:15.921,99.3200,100
36503525241785,10:08:23.525,99.3300,1
36503525267922,10:08:23.525,99.3300,99
36503525267922,10:08:23.525,99.3300,8
36507477914677,10:08:27.477,99.3200,100
36507477914677,10:08:27.477,99.3300,100
36507477914677,10:08:27.477,99.3300,100
36507477914677,10:08:27.477,99.3300,100
36507477914677,10:08:27.477,99.3300,500
36507479583461,10:08:27.479,99.3300,100
36507554279434,10:08:27.554,99.3300,75
36507554279434,10:08:27.554,99.3400,100
36507554279434,10:08:27.554,99.3400,100
36507554279434,10:08:27.554,99.3400,100
36507554279434,10:08:27.554,99.3400,100
36507554279434,10:08:27.554,99.3400,100
36507554279434,10:08:27.554,99.3400,100
36507554279434,10:08:27.554,99.3400,100
36507554279434,10:08:27.554,99.3400,100
36507554279434,10:08:27.554,99.3400,200
36507554616467,10:08:27.554,99.3400,100
36522723813607,10:08:42.723,99.3500,100
36522723813607,10:08:42.723,99.3500,100
36522723813607,10:08:42.723,99.3500,82
36522723832082,10:08:42.723,99.3500,18
36540913187560,10:09:00.913,99.3900,1
36547761318486,10:09:07.761,99.4000,1
36553686818467,10:09:13.686,99.3500,33
36553686884582,10:09:13.686,99.3500,67
36579843678607,10:09:39.843,99.3900,200
36579847183490,10:09:39.847,99.4100,7
36579965563153,10:09:39.965,99.4400,100
36579965893102,10:09:39.965,99.4500,100
36579965893102,10:09:39.965,99.4500,100
36579965893102,10:09:39.965,99.4500,100
36579965893102,10:09:39.965,99.4500,100
36579965893102,10:09:39.965,99.4500,100
36579965895780,10:09:39.965,99.4500,100
36579965895780,10:09:39.965,99.4500,100
36585179405069,10:09:45.179,99.4400,51
36585179950516,10:09:45.179,99.4400,49
36612573126716,10:10:12.573,99.3850,70
36615010594555,10:10:15.010,99.3800,5
36615010770617,10:10:15.010,99.3800,5
36615011189329,10:10:15.011,99.3800,5
36615011652693,10:10:15.011,99.3800,5
36615028130085,10:10:15.028,99.3800,1
36625116961622,10:10:25.116,99.3800,100
36626927702071,10:10:26.927,99.3800,13
36653179545530,10:10:53.179,99.3300,50
36653179545530,10:10:53.179,99.3200,50
36653179570558,10:10:53.179,99.3200,124
36664008315822,10:11:04.008,99.2900,80
36685398031135,10:11:25.398,99.2100,1
36691256056158,10:11:31.256,99.2300,63
36691256063152,10:11:31.256,99.2300,37
36691256063152,10:11:31.256,99.2300,8
36691256063152,10:11:31.256,99.2300,100
36691257989560,10:11:31.257,99.2400,9
36691265283579,10:11:31.265,99.2300,10
36691265430355,10:11:31.265,99.2300,5
36691298128136,10:11:31.298,99.2300,4
36698240624442,10:11:38.240,99.2900,100
36703077460602,10:11:43.077,99.2600,53
36703078007497,10:11:43.078,99.2600,1
36703078007497,10:11:43.078,99.2600,1
36703078007497,10:11:43.078,99.2500,76
36703078007497,10:11:43.078,99.2500,22
36708691296463,10:11:48.691,99.3700,1
36726328966674,10:12:06.328,99.4200,100
36726329287054,10:12:06.329,99.4200,7
36743276442583,10:12:23.276,99.3900,10
36743276442583,10:12:23.276,99.3800,90
36766015503451,10:12:46.015,99.3800,10
36766297114640,10:12:46.297,99.3600,100
36766297426826,10:12:46.297,99.3500,100
36766297426826,10:12:46.297,99.3500,100
36766297426826,10:12:46.297,99.3500,100
36766297426826,10:12:46.297,99.3500,100
36766297426826,10:12:46.297,99.3500,37
36766297454837,10:12:46.297,99.3500,63
36778191972522,10:12:58.191,99.3500,53
36778543179564,10:12:58.543,99.3600,50
36778543179564,10:12:58.543,99.3600,50
36779533682908,10:12:59.533,99.4000,100
36779533697172,10:12:59.533,99.4000,51
36807534491133,10:13:27.534,99.4600,30
36807535298040,10:13:27.535,99.4700,50
36807535323940,10:13:27.535,99.4700,50
36812720545164,10:13:32.720,99.5000,37
36852838865239,10:14:12.838,99.4700,100
36852838960740,10:14:12.838,99.4700,100
36858571118780,10:14:18.571,99.4500,12
36875093236752,10:14:35.093,99.5000,100
36875093236752,10:14:35.093,99.5000,50
36875093236752,10:14:35.093,99.5100,1
36875093236752,10:14:35.093,99.5100,51
36875094511583,10:14:35.094,99.5200,51
36875094511583,10:14:35.094,99.5200,49
36875094753079,10:14:35.094,99.5200,51
36875094753079,10:14:35.094,99.5200,8
36877135867765,10:14:37.135,99.4900,100
36928018344476,10:15:28.018,99.5100,50
36928018344476,10:15:28.018,99.5100,100
36928018344476,10:15:28.018,99.5200,50
36928018553224,10:15:28.018,99.5200,50
36928018553224,10:15:28.018,99.5200,51
36928018691351,10:15:28.018,99.5000,100
36928027756475,10:15:28.027,99.5300,100
36928029922756,10:15:28.029,99.5500,9
36941034562834,10:15:41.034,99.5500,51
36941034562834,10:15:41.034,99.5600,49
36941034801741,10:15:41.034,99.5600,2
36941034801741,10:15:41.034,99.5600,16
36941034876155,10:15:41.034,99.5400,100
36941521098667,10:15:41.521,99.5700,100
36941521163011,10:15:41.521,99.5700,100
36966496374231,10:16:06.496,99.5600,50
36974393712341,10:16:14.393,99.6100,9
36974393712341,10:16:14.393,99.6200,51
36974393712341,10:16:14.393,99.6400,100
36974393712341,10:16:14.393,99.6400,20
36983378369145,10:16:23.378,99.6000,100
36983378455038,10:16:23.378,99.6000,74
36983378484334,10:16:23.378,99.6000,26
36983378535332,10:16:23.378,99.6000,100
36983379126342,10:16:23.379,99.6000,100
36983379126342,10:16:23.379,99.6000,100
36983379126342,10:16:23.379,99.6000,100
36983379290138,10:16:23.379,99.6000,100
36983379478486,10:16:23.379,99.5900,100
36983544749201,10:16:23.544,99.5800,100
36983544845881,10:16:23.544,99.5800,100
36983544911340,10:16:23.544,99.5800,100
36983546356599,10:16:23.546,99.5600,100
36983994045919,10:16:23.994,99.5600,100
37012010579533,10:16:52.010,99.5000,100
37013342845828,10:16:53.342,99.5200,200
37013343171186,10:16:53.343,99.5100,100
37013343171186,10:16:53.343,99.5100,100
37013343171186,10:16:53.343,99.5100,100
37013343171186,10:16:53.343,99.5100,100
37013343171186,10:16:53.343,99.5100,100
37013344007989,10:16:53.344,99.5000,100
37013344007989,10:16:53.344,99.5000,1
37013344034776,10:16:53.344,99.5000,199
37013351856930,10:16:53.351,99.4900,1
37013351881709,10:16:53.351,99.4900,99
37013351892512,10:16:53.351,99.4900,99
37013938616991,10:16:53.938,99.4900,100
37013938616991,10:16:53.938,99.4900,100
37013938704085,10:16:53.938,99.4900,1
37013970515473,10:16:53.970,99.4900,100
37013970515473,10:16:53.970,99.4900,100
37013970515473,10:16:53.970,99.4900,100
37014534281805,10:16:54.534,99.4650,100
37015436038863,10:16:55.436,99.4500,100
37016139033675,10:16:56.139,99.4600,100
37018344514733,10:16:58.344,99.4500,100
37018344514733,10:16:58.344,99.4500,100
37018344514733,10:16:58.344,99.4500,100
37020072775816,10:17:00.072,99.4300,100
37020643037968,10:17:00.643,99.4200,100
37020643062729,10:17:00.643,99.4200,100
37020643062729,10:17:00.643,99.4200,200
37024203163716,10:17:04.203,99.4100,100
37024203188438,10:17:04.203,99.4100,100
37024203188438,10:17:04.203,99.4100,100
37024203188438,10:17:04.203,99.4100,100
37024203188438,10:17:04.203,99.4100,100
37025512293488,10:17:05.512,99.4100,100
37025512293488,10:17:05.512,99.4100,100
37026536010604,10:17:06.536,99.4100,1
37054686028165,10:17:34.686,99.3100,100
37054686269100,10:17:34.686,99.3100,100
37054686283675,10:17:34.686,99.3100,44
37054686287868,10:17:34.686,99.3100,56
37054686294558,10:17:34.686,99.3100,100
37054686294558,10:17:34.686,99.3100,100
37054686296004,10:17:34.686,99.3100,100
37055686048763,10:17:35.686,99.2800,2
37057776510065,10:17:37.776,99.2800,50
37057776510065,10:17:37.776,99.2800,50
37057823403438,10:17:37.823,99.2700,100
37062079901944,10:17:42.079,99.2400,50
37062079901944,10:17:42.079,99.2300,50
37076651337445,10:17:56.651,99.2500,98
37076651346771,10:17:56.651,99.2500,2
37077038133610,10:17:57.038,99.2400,100
37085621882495,10:18:05.621,99.2100,50
37085621882495,10:18:05.621,99.2000,50
37085621908845,10:18:05.621,99.2000,50
37085621964942,10:18:05.621,99.2000,50
37085622013995,10:18:05.622,99.2000,50
37086762778670,10:18:06.762,99.2000,100
37086762778670,10:18:06.762,99.2000,15
37086762867431,10:18:06.762,99.2000,85
37086763176458,10:18:06.763,99.2000,100
37091396217737,10:18:11.396,99.1400,50
37091396431994,10:18:11.396,99.1700,46
37091396435321,10:18:11.396,99.1700,54
37119994820558,10:18:39.994,99.2000,100
37134031259727,10:18:54.031,99.2100,100
37134031287048,10:18:54.031,99.2100,1
37134031287048,10:18:54.031,99.2100,100
37134031287048,10:18:54.031,99.2100,100
37134050177760,10:18:54.050,99.2400,100
37148754973443,10:19:08.754,99.2500,2
37148813456391,10:19:08.813,99.2600,1
37173989609391,10:19:33.989,99.2000,98
37173990657768,10:19:33.990,99.2000,2
37177026426930,10:19:37.026,99.2300,1
37205041365054,10:20:05.041,99.2200,100
37205041365054,10:20:05.041,99.2200,100
37205041365054,10:20:05.041,99.2200,100
37205041365054,10:20:05.041,99.2200,6
37219545741231,10:20:19.545,99.2200,6
37220014150714,10:20:20.014,99.2200,94
37224038792840,10:20:24.038,99.2800,10
37231998506764,10:20:31.998,99.2800,4
37234038728573,10:20:34.038,99.3200,20
37234039089913,10:20:34.039,99.3200,75
37234039125232,10:20:34.039,99.3200,5
37243052976745,10:20:43.052,99.3700,100
37243052976745,10:20:43.052,99.3700,100
37259040438591,10:20:59.040,99.4100,1
37259040438591,10:20:59.040,99.4100,99
37259040610848,10:20:59.040,99.4100,1
37264400428103,10:21:04.400,99.4000,100
37264400596561,10:21:04.400,99.4000,100
37264400725869,10:21:04.400,99.4000,100
37264401087517,10:21:04.401,99.4000,100
37264401531776,10:21:04.401,99.3900,91
37264401556058,10:21:04.401,99.3900,9
37264402546879,10:21:04.402,99.3900,100
37264402731322,10:21:04.402,99.3900,20
37264402899073,10:21:04.402,99.3900,80
37264407073085,10:21:04.407,99.3800,100
37264424335463,10:21:04.424,99.3800,100
37264426702555,10:21:04.426,99.3800,4
37264663593382,10:21:04.663,99.3800,96
37269565287695,10:21:09.565,99.3400,100
37301299553392,10:21:41.299,99.3000,100
37302409714245,10:21:42.409,99.3000,100
37302781643024,10:21:42.781,99.3000,100
37302781751096,10:21:42.781,99.3000,90
37302781775267,10:21:42.781,99.3000,10
37302781799593,10:21:42.781,99.3000,10
37302781800132,10:21:42.781,99.3000,90
37302782526189,10:21:42.782,99.3000,100
37303066211173,10:21:43.066,99.3100,3
37304996482426,10:21:44.996,99.3100,100
37330186163241,10:22:10.186,99.3000,1
37330186191916,10:22:10.186,99.3000,99
37334874632057,10:22:14.874,99.3500,99
37334874663465,10:22:14.874,99.3500,1
37334874663465,10:22:14.874,99.3500,7
37334874663465,10:22:14.874,99.3500,200
37336948263670,10:22:16.948,99.3400,100
37345637149463,10:22:25.637,99.3500,5
37362176818724,10:22:42.176,99.2700,1
37376952785178,10:22:56.952,99.2900,100
37377797841090,10:22:57.797,99.2800,100
37377798313622,10:22:57.798,99.2700,100
37412591147019,10:23:32.591,99.2800,1
37461514175799,10:24:21.514,99.2000,80
37487013346272,10:24:47.013,99.1500,3
37493012760837,10:24:53.012,99.1700,75
37493012782962,10:24:53.012,99.1700,25
37493012782962,10:24:53.012,99.1700,6
37493015121323,10:24:53.015,99.1900,100
37549009053265,10:25:49.009,99.2100,2
37591802841516,10:26:31.802,99.1300,100
37611012110865,10:26:51.012,99.1000,2
37628130909006,10:27:08.130,99.0400,200
37628130936459,10:27:08.130,99.0400,1
37628130936459,10:27:08.130,99.0400,1
37628130936459,10:27:08.130,99.0400,52
37628130936459,10:27:08.130,99.0400,53
37631109154816,10:27:11.109,99.0500,5
37639348805457,10:27:19.348,99.0200,100
37639348835197,10:27:19.348,99.0200,100
37682249754926,10:28:02.249,99.0300,2
37706069608195,10:28:26.069,99.0000,100
37706069837142,10:28:26.069,99.0000,100
37710764544964,10:28:30.764,98.9900,50
37710764572011,10:28:30.764,98.9900,50
37710764935167,10:28:30.764,98.9900,1
37717753618316,10:28:37.753,99.0300,4
37719636810200,10:28:39.636,99.0400,4
37737095076932,10:28:57.095,99.0400,3
37737233561136,10:28:57.233,99.0600,100
37737233561136,10:28:57.233,99.0700,100
37737234355510,10:28:57.234,99.0700,100
37738243606749,10:28:58.243,99.0700,51
37790077986752,10:29:50.077,99.0200,23
37797173247416,10:29:57.173,98.9900,2
37800068820658,10:30:00.068,99.0500,100
37800068820658,10:30:00.068,99.0500,100
37800068820658,10:30:00.068,99.0500,100
37800068820658,10:30:00.068,99.0700,100
37800068820658,10:30:00.068,99.1100,100
37800068820658,10:30:00.068,99.1100,100
37800068820658,10:30:00.068,99.1500,10
37800087464006,10:30:00.087,99.1500,100
37800088194478,10:30:00.088,99.1500,100
37800088194478,10:30:00.088,99.1500,100
37800089043424,10:30:00.089,99.2000,100
37800089043424,10:30:00.089,99.2000,200
37800089396380,10:30:00.089,99.2200,100
37800092190900,10:30:00.092,99.2400,200
37800138453702,10:30:00.138,99.2900,52
37800199220821,10:30:00.199,99.2000,22
37801032632417,10:30:01.032,99.2700,10
37811830449755,10:30:11.830,99.2300,100
37816776122519,10:30:16.776,99.2300,23
37816776234564,10:30:16.776,99.2200,23
37816779192375,10:30:16.779,99.2100,100
37816779192375,10:30:16.779,99.2100,100
37816779192375,10:30:16.779,99.2100,100
37816779192375,10:30:16.779,99.2100,100
37816780997622,10:30:16.780,99.2000,76
37816780999237,10:30:16.780,99.2000,24
37816781511490,10:30:16.781,99.2000,100
37816782789848,10:30:16.782,99.2000,10
37816783463791,10:30:16.783,99.2000,10
37816783479890,10:30:16.783,99.2000,10
37816783495825,10:30:16.783,99.2000,10
37816783501230,10:30:16.783,99.2000,10
37832400991607,10:30:32.400,99.2700,5
37832400991607,10:30:32.400,99.2700,3
37845291700569,10:30:45.291,99.3200,1
37849924926791,10:30:49.924,99.3700,200
37849925915183,10:30:49.925,99.3700,52
37851477131586,10:30:51.477,99.3600,58
37851477140938,10:30:51.477,99.3600,42
37851477409677,10:30:51.477,99.3500,100
37851477437787,10:30:51.477,99.3500,100
37851477465410,10:30:51.477,99.3500,100
37851477636513,10:30:51.477,99.3500,100
37851477659038,10:30:51.477,99.3500,100
37851477740853,10:30:51.477,99.3500,100
37857620070713,10:30:57.620,99.3100,100
37862857673039,10:31:02.857,99.3700,4
37871315994343,10:31:11.315,99.3500,100
37871323454247,10:31:11.323,99.3500,100
37871323481517,10:31:11.323,99.3500,100
37871323481517,10:31:11.323,99.3500,100
37886078777466,10:31:26.078,99.4100,100
37886078777466,10:31:26.078,99.4100,5
37886078870280,10:31:26.078,99.4100,5
37886079116286,10:31:26.079,99.4100,95
37886084140625,10:31:26.084,99.4000,5
37887022827531,10:31:27.022,99.4000,5
37887022962193,10:31:27.022,99.4000,5
37887023008869,10:31:27.023,99.4000,5
37887105359875,10:31:27.105,99.4000,10
37888579818244,10:31:28.579,99.4000,25
37888579818244,10:31:28.579,99.4000,10
37888579818244,10:31:28.579,99.3900,165
37892030638770,10:31:32.030,99.4400,100
37893488247620,10:31:33.488,99.5000,100
37894115751967,10:31:34.115,99.5100,100
37896079289825,10:31:36.079,99.5300,100
37896079289825,10:31:36.079,99.5300,100
37896384816820,10:31:36.384,99.5600,100
37896384816820,10:31:36.384,99.5700,100
37896384816820,10:31:36.384,99.5700,100
37896680935673,10:31:36.680,99.5900,100
37896680935673,10:31:36.680,99.6000,200
37896680935673,10:31:36.680,99.6000,100
37896680935673,10:31:36.680,99.6000,100
37897683318973,10:31:37.683,99.6200,50
37897683318973,10:31:37.683,99.6300,100
37897683318973,10:31:37.683,99.6300,100
37897683318973,10:31:37.683,99.6300,200
37897686630934,10:31:37.686,99.6300,100
37897687143942,10:31:37.687,99.6300,100
37897702922779,10:31:37.702,99.5900,100
37897702949772,10:31:37.702,99.5900,50
37897702989828,10:31:37.702,99.5900,50
37897703462602,10:31:37.703,99.5700,10
37897703481192,10:31:37.703,99.5600,100
37897853323432,10:31:37.853,99.5900,10
37897853323432,10:31:37.853,99.5900,15
37897853323432,10:31:37.853,99.5900,10
37897853323432,10:31:37.853,99.5900,10
37897853323432,10:31:37.853,99.5900,10
37897853323432,10:31:37.853,99.5900,10
37897853323432,10:31:37.853,99.5900,16
37897853323432,10:31:37.853,99.5900,34
37897853323432,10:31:37.853,99.6100,100
37897853671959,10:31:37.853,99.5900,100
37897856508168,10:31:37.856,99.6000,50
37897856508168,10:31:37.856,99.6000,50
37897858292894,10:31:37.858,99.6000,50
37900136181018,10:31:40.136,99.5700,100
37900136181018,10:31:40.136,99.5700,100
37900136181018,10:31:40.136,99.5700,200
37900137799650,10:31:40.137,99.5400,23
37900138402765,10:31:40.138,99.5400,60
37900138402765,10:31:40.138,99.5400,40
37902609815892,10:31:42.609,99.5200,1
37920117907828,10:32:00.117,99.5100,200
37920118012827,10:32:00.118,99.4800,14
37920118282716,10:32:00.118,99.4900,23
37920118338386,10:32:00.118,99.4900,77
37920118499888,10:32:00.118,99.4700,23
37948065006794,10:32:28.065,99.5500,50
37948065006794,10:32:28.065,99.5500,200
37948065006794,10:32:28.065,99.5600,200
37948065006794,10:32:28.065,99.5600,50
37950756484197,10:32:30.756,99.4900,12
37953075186428,10:32:33.075,99.5600,200
37953075186428,10:32:33.075,99.5600,100
37957999506521,10:32:37.999,99.5700,4
37957999506521,10:32:37.999,99.5700,18
37979656017805,10:32:59.656,99.5000,89
37979656064846,10:32:59.656,99.5000,11
37979656602440,10:32:59.656,99.4900,100
37979656615909,10:32:59.656,99.4800,100
37979657449700,10:32:59.657,99.4900,18
37980376396606,10:33:00.376,99.4800,50
37980377518334,10:33:00.377,99.4800,80
37982572566517,10:33:02.572,99.5500,100
37982572740251,10:33:02.572,99.5700,13
37982572832284,10:33:02.572,99.5700,66
37982572848548,10:33:02.572,99.5700,20
37982572901051,10:33:02.572,99.5700,1
37982572901051,10:33:02.572,99.5700,100
37982572908183,10:33:02.572,99.5700,101
37982581023738,10:33:02.581,99.5700,100
37983117022769,10:33:03.117,99.5200,50
37988440362225,10:33:08.440,99.4800,100
38010624012187,10:33:30.624,99.4700,50
38045777442079,10:34:05.777,99.4550,2
38045777493128,10:34:05.777,99.4550,2
38045777516508,10:34:05.777,99.4550,1
38045777516508,10:34:05.777,99.4550,3
38045777516508,10:34:05.777,99.4550,1
38045777579940,10:34:05.777,99.4550,2
38045777603285,10:34:05.777,99.4600,2
38046293804308,10:34:06.293,99.4400,100
38046293832786,10:34:06.293,99.4300,30
38046293843145,10:34:06.293,99.4300,70
38046294579991,10:34:06.294,99.4200,100
38049155857644,10:34:09.155,99.3600,100
38049155857644,10:34:09.155,99.3600,100
38066104873719,10:34:26.104,99.3650,163
38071226785686,10:34:31.226,99.4100,1
38071226785686,10:34:31.226,99.4100,84
38092983060643,10:34:52.983,99.3700,100
38092983424181,10:34:52.983,99.3700,1
38096985625141,10:34:56.985,99.3300,1
38096985630901,10:34:56.985,99.3300,3
38109559617588,10:35:09.559,99.4700,100
38109640607824,10:35:09.640,99.4800,100
38112232171047,10:35:12.232,99.4800,100
38112232403779,10:35:12.232,99.4900,100
38113919504155,10:35:13.919,99.4900,200
38113919831559,10:35:13.919,99.4900,1
38161940945949,10:36:01.940,99.3300,1
38171859342256,10:36:11.859,99.3700,2
38173139851510,10:36:13.139,99.4100,1
38173139851510,10:36:13.139,99.4100,3
38211652837414,10:36:51.652,99.4200,100
38212653794062,10:36:52.653,99.4200,100
38212653888356,10:36:52.653,99.4200,100
38230009283779,10:37:10.009,99.3800,100
38231035079513,10:37:11.035,99.3800,100
38231035079513,10:37:11.035,99.3700,100
38231035079513,10:37:11.035,99.3700,100
38256028597460,10:37:36.028,99.2400,10
38256028726556,10:37:36.028,99.2400,90
38289921130662,10:38:09.921,99.2600,100
38289921147626,10:38:09.921,99.2600,1
38289967410134,10:38:09.967,99.2400,23
38291297961796,10:38:11.297,99.2000,50
38291297961796,10:38:11.297,99.1900,73
38291298117161,10:38:11.298,99.1900,27
38291298117161,10:38:11.298,99.1900,23
38323025199651,10:38:43.025,99.0900,65
38351686453469,10:39:11.686,99.0500,22
38351686481707,10:39:11.686,99.0500,78
38355009437139,10:39:15.009,99.0600,2
38358107850821,10:39:18.107,99.0300,22
38358108179448,10:39:18.108,99.0200,22
38359792305993,10:39:19.792,98.9800,100
38360793328379,10:39:20.793,98.9800,100
38367976268562,10:39:27.976,99.0300,100
38367976268562,10:39:27.976,99.0300,100
38409512484091,10:40:09.512,99.0300,22
38409512484091,10:40:09.512,99.0300,3
38409512699714,10:40:09.512,99.0300,25
38411157254137,10:40:11.157,99.0000,100
38417856547160,10:40:17.856,99.0200,3
38420335897493,10:40:20.335,99.0000,13
38423310545053,10:40:23.310,99.0600,1
38435109433531,10:40:35.109,99.0300,100
38452921121991,10:40:52.921,99.0200,50
38452921121991,10:40:52.921,99.0300,50
38452921735606,10:40:52.921,99.0300,50
38480093078527,10:41:20.093,98.9600,100
38521830410349,10:42:01.830,99.0300,100
38535227729711,10:42:15.227,99.0200,4
38535228534048,10:42:15.228,99.0200,49
38535228574654,10:42:15.228,99.0200,48
38535228646784,10:42:15.228,99.0200,3
38569822080061,10:42:49.822,98.9600,100
38569822125810,10:42:49.822,98.9500,260
38569822128807,10:42:49.822,98.9500,136
38569822134382,10:42:49.822,98.9500,104
38605694516950,10:43:25.694,98.9200,100
38642136489859,10:44:02.136,98.9100,100
38642136494739,10:44:02.136,98.9100,1
38642142082622,10:44:02.142,98.9400,100
38647147879037,10:44:07.147,98.9400,100
38654653834425,10:44:14.653,98.9600,100
38661195862151,10:44:21.195,99.0100,100
38682961735864,10:44:42.961,99.0000,4
38682961735864,10:44:42.961,99.0000,100
38712538920027,10:45:12.538,98.9600,26
38712538920027,10:45:12.538,98.9600,74
38712538971971,10:45:12.538,98.9600,7
38713846489869,10:45:13.846,98.9200,4
38735538955142,10:45:35.538,98.9500,1000
38736030142766,10:45:36.030,98.9300,3
38773608641681,10:46:13.608,99.0000,5
38773614341033,10:46:13.614,99.0100,100
38773749524075,10:46:13.749,99.0000,100
38778368248681,10:46:18.368,99.0000,4
38778368728460,10:46:18.368,98.9900,3
38797982536526,10:46:37.982,98.9900,97
38797982536526,10:46:37.982,98.9800,4
38806752547021,10:46:46.752,98.9600,100
38807358246424,10:46:47.358,98.9500,100
38808707140838,10:46:48.707,98.9600,22
38810913054909,10:46:50.913,98.9600,100
38814309014374,10:46:54.309,98.9600,1
38814339432469,10:46:54.339,98.9700,100
38817043058371,10:46:57.043,98.9600,100
38817043058371,10:46:57.043,98.9600,65
38820209954997,10:47:00.209,98.9800,100
38830564315901,10:47:10.564,98.9200,100
38852163819788,10:47:32.163,98.8700,100
38897934707869,10:48:17.934,98.8100,3
38898988395165,10:48:18.988,98.7900,100
38905151236864,10:48:25.151,98.8100,12
38905151261408,10:48:25.151,98.8100,88
38905151261408,10:48:25.151,98.8100,100
38923273087405,10:48:43.273,98.8000,100
38939052701660,10:48:59.052,98.7500,1
38955862684590,10:49:15.862,98.7250,100
38962527339402,10:49:22.527,98.7250,100
38962591142631,10:49:22.591,98.7250,100
38962593804229,10:49:22.593,98.7400,1
38962593804229,10:49:22.593,98.7400,99
38962593829576,10:49:22.593,98.7400,1
38966430053557,10:49:26.430,98.7100,50
38981553941446,10:49:41.553,98.6800,100
39000065228623,10:50:00.065,98.6500,100
39000065228623,10:50:00.065,98.6500,100
39006584030085,10:50:06.584,98.5900,5
39039821355283,10:50:39.821,98.5600,30
39060832687030,10:51:00.832,98.5700,100
39060834942268,10:51:00.834,98.5800,100
39060838167309,10:51:00.838,98.5900,100
39060893708800,10:51:00.893,98.5900,100
39068451000842,10:51:08.451,98.5900,1
39068451000842,10:51:08.451,98.6000,25
39068451011121,10:51:08.451,98.6000,75
39068451153383,10:51:08.451,98.6100,42
39076902013781,10:51:16.902,98.6100,58
39077903217480,10:51:17.903,98.6100,100
39083115868809,10:51:23.115,98.6250,5
39083115868809,10:51:23.115,98.6250,1
39083115868809,10:51:23.115,98.6250,2
39083115868809,10:51:23.115,98.6250,3
39083115868809,10:51:23.115,98.6250,3
39083115868809,10:51:23.115,98.6250,3
39083115868809,10:51:23.115,98.6250,2
39135805026027,10:52:15.805,98.6000,100
39135857247391,10:52:15.857,98.6000,100
39135857264026,10:52:15.857,98.6000,21
39135857264026,10:52:15.857,98.6000,79
39143701384717,10:52:23.701,98.5900,6
39143701384717,10:52:23.701,98.5800,19
39150451398769,10:52:30.451,98.6000,1
39150451398769,10:52:30.451,98.6000,100
39175918794349,10:52:55.918,98.5500,100
39175918823197,10:52:55.918,98.5500,53
39200053730627,10:53:20.053,98.4750,100
39200403990474,10:53:20.403,98.4900,100
39201405254200,10:53:21.405,98.4900,100
39201405859086,10:53:21.405,98.4900,100
39222382653872,10:53:42.382,98.4700,100
39222382653872,10:53:42.382,98.4700,100
39222394894635,10:53:42.394,98.4500,100
39222397044929,10:53:42.397,98.4500,100
39222406130494,10:53:42.406,98.4400,100
39222417800209,10:53:42.417,98.4000,100
39222417800209,10:53:42.417,98.4000,100
39222417800209,10:53:42.417,98.4000,200
39222556577472,10:53:42.556,98.4400,100
39243436581177,10:54:03.436,98.4300,100
39243436581177,10:54:03.436,98.4300,100
39243437260161,10:54:03.437,98.4400,100
39243437260161,10:54:03.437,98.4400,100
39243437260161,10:54:03.437,98.4400,100
39244437472065,10:54:04.437,98.4400,100
39244780804960,10:54:04.780,98.4500,1
39260353862724,10:54:20.353,98.4700,5
39279489262668,10:54:39.489,98.5100,100
39279489262668,10:54:39.489,98.5100,100
39279499045165,10:54:39.499,98.4900,20
39279499045165,10:54:39.499,98.4900,100
39283695290177,10:54:43.695,98.5400,100
39283695316176,10:54:43.695,98.5400,5
39291090440262,10:54:51.090,98.5600,100
39291090440262,10:54:51.090,98.5600,100
39304292669143,10:55:04.292,98.5700,1
39308077446844,10:55:08.077,98.5800,100
39312297250864,10:55:12.297,98.6200,100
39312297250864,10:55:12.297,98.6200,100
39316294722115,10:55:16.294,98.6500,100
39316540979651,10:55:16.540,98.6300,45
39339340053709,10:55:39.340,98.6100,13
39353772051201,10:55:53.772,98.5900,100
39354804845191,10:55:54.804,98.5300,1
39354805203240,10:55:54.805,98.5300,2
39357236376924,10:55:57.236,98.5500,100
39403732815629,10:56:43.732,98.5500,50
39403972752693,10:56:43.972,98.5500,6
39405198147183,10:56:45.198,98.5400,5
39405198147183,10:56:45.198,98.5300,22
39405199962894,10:56:45.199,98.5200,100
39405199962894,10:56:45.199,98.5400,100
39405200012150,10:56:45.200,98.5400,100
39405254191001,10:56:45.254,98.5500,100
39406460225138,10:56:46.460,98.5500,25
39406460269584,10:56:46.460,98.5500,75
39406460269584,10:56:46.460,98.5500,25
39406460359654,10:56:46.460,98.5500,75
39406460709199,10:56:46.460,98.5600,18
39406463886061,10:56:46.463,98.5500,200
39406465569859,10:56:46.465,98.5300,10
39406465594533,10:56:46.465,98.5300,100
39406466364083,10:56:46.466,98.5300,100
39406466718665,10:56:46.466,98.5200,100
39406466938388,10:56:46.466,98.5300,200
39406466987477,10:56:46.466,98.5300,30
39406471063094,10:56:46.471,98.5300,100
39407743047109,10:56:47.743,98.5500,100
39407743141914,10:56:47.743,98.5300,10
39409746515973,10:56:49.746,98.5200,8
39409746515973,10:56:49.746,98.5200,100
39412145043813,10:56:52.145,98.5400,10
39412145079650,10:56:52.145,98.5500,16
39418824643802,10:56:58.824,98.5600,100
39420159736804,10:57:00.159,98.5700,100
39420159810068,10:57:00.159,98.5700,40
39420159811326,10:57:00.159,98.5700,60
39420922486389,10:57:00.922,98.5700,5
39423149015683,10:57:03.149,98.5700,45
39423313290068,10:57:03.313,98.5900,100
39428151470633,10:57:08.151,98.6300,39
39434964430516,10:57:14.964,98.6200,23
39434964433764,10:57:14.964,98.6200,32
39435025130163,10:57:15.025,98.6200,100
39435745151196,10:57:15.745,98.6300,64
39435745360554,10:57:15.745,98.6300,36
39437386937762,10:57:17.386,98.6200,100
39466521932510,10:57:46.521,98.5800,10
39466522623125,10:57:46.522,98.5800,40
39466523510506,10:57:46.523,98.5800,3
39466529299591,10:57:46.529,98.5800,62
39466529299591,10:57:46.529,98.5700,38
39466529329093,10:57:46.529,98.5700,62
39468730638774,10:57:48.730,98.5800,100
39487720944821,10:58:07.720,98.5800,1
39487723192112,10:58:07.723,98.5800,50
39527107400431,10:58:47.107,98.5800,6
39527107424963,10:58:47.107,98.5800,100
39532069014210,10:58:52.069,98.5800,97
39532069029576,10:58:52.069,98.5800,3
39535029122444,10:58:55.029,98.6000,100
39538480661639,10:58:58.480,98.6400,50
39538480661639,10:58:58.480,98.6500,300
39538480661639,10:58:58.480,98.6500,50
39554985595240,10:59:14.985,98.6700,100
39559756655587,10:59:19.756,98.6600,100
39587394703471,10:59:47.394,98.6700,58
39587394703471,10:59:47.394,98.6700,42
39587394731457,10:59:47.394,98.6700,58
39600109066597,11:00:00.109,98.6800,1
39600109068146,11:00:00.109,98.6800,4
39601233186122,11:00:01.233,98.7100,50
39606638686023,11:00:06.638,98.7400,10
39606638686023,11:00:06.638,98.7500,390
39606638711846,11:00:06.638,98.7500,110
39606967197874,11:00:06.967,98.7700,100
39610086662513,11:00:10.086,98.7900,100
39617207823627,11:00:17.207,98.8500,100
39617389533428,11:00:17.389,98.8500,100
39617389558886,11:00:17.389,98.8500,200
39621543920206,11:00:21.543,98.8700,100
39625612084045,11:00:25.612,98.8700,2
39627480762662,11:00:27.480,98.9200,100
39627480762662,11:00:27.480,98.9200,50
39627480762662,11:00:27.480,98.9300,50
39628111037790,11:00:28.111,98.9500,50
39628111037790,11:00:28.111,98.9500,100
39628296048180,11:00:28.296,98.9600,50
39628528327746,11:00:28.528,99.0000,100
39628528327746,11:00:28.528,99.0000,22
39628671575010,11:00:28.671,99.0200,200
39628671575010,11:00:28.671,99.0200,100
39628671575010,11:00:28.671,99.0200,22
39628860148754,11:00:28.860,99.0300,21
39628860148754,11:00:28.860,99.0300,100
39628860292275,11:00:28.860,99.0100,100
39628975187834,11:00:28.975,99.0500,300
39628975187834,11:00:28.975,99.0500,100
39628975187834,11:00:28.975,99.0500,100
39628975187834,11:00:28.975,99.0500,22
39628975187834,11:00:28.975,99.0500,100
39628975830105,11:00:28.975,99.0300,100
39629128853928,11:00:29.128,99.0600,100
39629128853928,11:00:29.128,99.0600,22
39629287184396,11:00:29.287,99.0900,100
39629287184396,11:00:29.287,99.0900,100
39629287184396,11:00:29.287,99.0900,22
39629287494619,11:00:29.287,99.0700,100
39629480475573,11:00:29.480,99.0800,100
39630885388368,11:00:30.885,99.0200,46
39630885394203,11:00:30.885,99.0200,54
39630885394203,11:00:30.885,99.0200,59
39630885398092,11:00:30.885,99.0200,41
39631640507609,11:00:31.640,99.0100,6
39631980516909,11:00:31.980,99.0200,200
39638088331477,11:00:38.088,99.0000,100
39638088331477,11:00:38.088,99.0000,100
39644046274218,11:00:44.046,98.9900,100
39648061549640,11:00:48.061,99.0200,100
39648061645349,11:00:48.061,99.0200,50
39653170084590,11:00:53.170,99.0400,100
39653170084590,11:00:53.170,99.0500,200
39653170084590,11:00:53.170,99.0500,1
39653171801300,11:00:53.171,99.0600,100
39653322152667,11:00:53.322,99.0800,21
39653465831596,11:00:53.465,99.1000,300
39653755345163,11:00:53.755,99.1500,400
39653755345163,11:00:53.755,99.1500,100
39653755345163,11:00:53.755,99.1500,22
39657366674934,11:00:57.366,99.1400,50
39657366674934,11:00:57.366,99.1400,100
39657366674934,11:00:57.366,99.1400,50
39662822294686,11:01:02.822,99.1900,70
39662823260416,11:01:02.823,99.1900,30
39662823260416,11:01:02.823,99.1900,70
39662823621221,11:01:02.823,99.1900,30
39662823621221,11:01:02.823,99.1900,100
39663046681308,11:01:03.046,99.2000,70
39663046978684,11:01:03.046,99.2000,70
39663047050216,11:01:03.047,99.2000,760
39663462879359,11:01:03.462,99.2900,100
39663462879359,11:01:03.462,99.3000,100
39663462879359,11:01:03.462,99.3000,22
39663462879359,11:01:03.462,99.3000,14
39663467931399,11:01:03.467,99.3000,86
39663467931399,11:01:03.467,99.3000,14
39663743249120,11:01:03.743,99.3000,100
39663981000989,11:01:03.981,99.3000,50
39663981000989,11:01:03.981,99.3000,100
39663981000989,11:01:03.981,99.2900,12
39663981000989,11:01:03.981,99.2900,100
39665611578273,11:01:05.611,99.2900,67
39665611580751,11:01:05.611,99.2900,33
39665611580751,11:01:05.611,99.2900,73
39665611585498,11:01:05.611,99.2900,27
39665611585498,11:01:05.611,99.2900,86
39665611586473,11:01:05.611,99.2900,113
39665611593691,11:01:05.611,99.2900,1
39665611593691,11:01:05.611,99.2900,3
39665611606806,11:01:05.611,99.2800,79
39666526532942,11:01:06.526,99.2400,100
39666676376698,11:01:06.676,99.2000,2
39666676378713,11:01:06.676,99.2000,1
39666676379300,11:01:06.676,99.2000,4
39666676379730,11:01:06.676,99.2000,3
39666870249070,11:01:06.870,99.1900,100
39666870623421,11:01:06.870,99.1800,100
39668546522107,11:01:08.546,99.2500,100
39668546585397,11:01:08.546,99.2500,100
39668546666833,11:01:08.546,99.2500,100
39668546739157,11:01:08.546,99.2500,100
39668546795561,11:01:08.546,99.2400,10
39668546867750,11:01:08.546,99.2400,90
39670544094240,11:01:10.544,99.2100,100
39671056255004,11:01:11.056,99.1900,100
39671056255004,11:01:11.056,99.1900,99
39671056581592,11:01:11.056,99.1900,101
39671721506150,11:01:11.721,99.1600,100
39671764908579,11:01:11.764,99.1100,1
39671764909208,11:01:11.764,99.1100,2
39671764913009,11:01:11.764,99.1100,2
39671764913719,11:01:11.764,99.1100,4
39671764914288,11:01:11.764,99.1100,3
39678144180190,11:01:18.144,99.1900,100
39678145818663,11:01:18.145,99.1900,100
39678145852988,11:01:18.145,99.1900,62
39678476969701,11:01:18.476,99.1900,88
39684617007044,11:01:24.617,99.2800,100
39684617007044,11:01:24.617,99.2800,22
39684618110594,11:01:24.618,99.2900,10
39684618903555,11:01:24.618,99.2700,5
39684619093373,11:01:24.619,99.2700,6
39687469922386,11:01:27.469,99.2300,100
39687469937416,11:01:27.469,99.2200,100
39703853977748,11:01:43.853,99.2300,100
39703853977748,11:01:43.853,99.2600,100
39703854064276,11:01:43.854,99.2400,100
39703854585696,11:01:43.854,99.2700,39
39703854585696,11:01:43.854,99.2800,61
39703855218546,11:01:43.855,99.2600,20
39703860393831,11:01:43.860,99.2600,80
39703860393831,11:01:43.860,99.2600,20
39703862557511,11:01:43.862,99.2600,19
39703952737427,11:01:43.952,99.2900,100
39704240956651,11:01:44.240,99.3400,5
39704409666606,11:01:44.409,99.3700,100
39706465458959,11:01:46.465,99.2700,100
39709178060311,11:01:49.178,99.2700,50
39709178060311,11:01:49.178,99.2700,100
39709178060311,11:01:49.178,99.2600,50
39709186025673,11:01:49.186,99.2500,200
39709186025673,11:01:49.186,99.2500,50
39709186051839,11:01:49.186,99.2500,50
39709187451525,11:01:49.187,99.2400,100
39711931122576,11:01:51.931,99.2400,100
39725940207638,11:02:05.940,99.2800,15
39725945157595,11:02:05.945,99.2700,85
39725945182538,11:02:05.945,99.2700,15
39740066030223,11:02:20.066,99.2600,3
39749025341539,11:02:29.025,99.2300,100
39749025837657,11:02:29.025,99.2200,5
39749025866034,11:02:29.025,99.2200,95
39752241292085,11:02:32.241,99.1800,100
39759670485314,11:02:39.670,99.1700,25
39759671337891,11:02:39.671,99.1700,75
39762445857912,11:02:42.445,99.2000,100
39762445857912,11:02:42.445,99.2000,22
39762445857912,11:02:42.445,99.2000,12
39762445876007,11:02:42.445,99.2000,88
39765243331704,11:02:45.243,99.1700,100
39795506532808,11:03:15.506,99.2200,100
39795506532808,11:03:15.506,99.2100,100
39798222687921,11:03:18.222,99.1800,100
39798255345565,11:03:18.255,99.1600,100
39798325060921,11:03:18.325,99.1300,200
39798325060921,11:03:18.325,99.1300,14
39800765262223,11:03:20.765,99.1100,100
39800765262223,11:03:20.765,99.1100,100
39800771306832,11:03:20.771,99.1300,100
39800773785578,11:03:20.773,99.0900,100
39800773785578,11:03:20.773,99.0900,200
39803600222146,11:03:23.600,99.0800,1
39842198816775,11:04:02.198,99.1700,1
39842198816775,11:04:02.198,99.1700,18
39842198824874,11:04:02.198,99.1700,16
39842198836618,11:04:02.198,99.1700,25
39842198841338,11:04:02.198,99.1700,41
39846418993975,11:04:06.418,99.2400,350
39847943573968,11:04:07.943,99.2000,5
39857561690644,11:04:17.561,99.1800,59
39857630043500,11:04:17.630,99.1800,32
39862826293454,11:04:22.826,99.1800,9
39862826293454,11:04:22.826,99.1800,2
39862832033874,11:04:22.832,99.1600,1
39862832299545,11:04:22.832,99.1600,2
39862832419508,11:04:22.832,99.1600,1
39885204301920,11:04:45.204,99.2300,100
39885204333406,11:04:45.204,99.2300,100
39885208138440,11:04:45.208,99.2200,80
39907070282083,11:05:07.070,99.2500,14
39912314819416,11:05:12.314,99.2100,25
39914315924401,11:05:14.315,99.2100,14
39954062570194,11:05:54.062,99.2000,11
39954062570194,11:05:54.062,99.2000,89
39954062612806,11:05:54.062,99.2000,11
39954062612806,11:05:54.062,99.2000,100
39965528108220,11:06:05.528,99.1600,100
39965528108220,11:06:05.528,99.1600,5
39965528148709,11:06:05.528,99.1500,100
39965528164760,11:06:05.528,99.1400,100
39965528185488,11:06:05.528,99.1300,5
39965528203342,11:06:05.528,99.1300,95
39991004387054,11:06:31.004,99.1200,200
39991004387054,11:06:31.004,99.1100,100
39991004387054,11:06:31.004,99.1100,100
39991004387054,11:06:31.004,99.1100,11
39991004390656,11:06:31.004,99.1100,89
39991004390656,11:06:31.004,99.1100,100
39991004390656,11:06:31.004,99.1100,100
40024148451937,11:07:04.148,99.1400,100
40024148451937,11:07:04.148,99.1400,1
40024148451937,11:07:04.148,99.1400,100
40086120123934,11:08:06.120,99.1400,100
40086120123934,11:08:06.120,99.1400,5
40086120208205,11:08:06.120,99.1300,100
40086120208205,11:08:06.120,99.1300,100
40086120265291,11:08:06.120,99.1300,200
40086141965717,11:08:06.141,99.1200,38
40086143023946,11:08:06.143,99.1200,62
40086143023946,11:08:06.143,99.1200,38
40149242299561,11:09:09.242,99.1700,50
40149242299561,11:09:09.242,99.1800,69
40191586954945,11:09:51.586,99.1800,31
40214502872776,11:10:14.502,99.1600,1
40214502875216,11:10:14.502,99.1600,1
40214502875757,11:10:14.502,99.1600,1
40214502879805,11:10:14.502,99.1600,2
40214502880352,11:10:14.502,99.1600,1
40214502884484,11:10:14.502,99.1600,2
40225488017409,11:10:25.488,99.2100,84
40225488017974,11:10:25.488,99.2100,16
40225488017974,11:10:25.488,99.2100,71
40225488026409,11:10:25.488,99.2100,29
40225488026409,11:10:25.488,99.2100,71
40225488033608,11:10:25.488,99.2100,29
40225667413066,11:10:25.667,99.2200,100
40225668173977,11:10:25.668,99.2200,100
40225669304107,11:10:25.669,99.2300,100
40230500027342,11:10:30.500,99.2000,100
40230521282922,11:10:30.521,99.2000,100
40239013680114,11:10:39.013,99.2000,1
40243723693034,11:10:43.723,99.2000,99
40243723693034,11:10:43.723,99.2000,5
40243723693034,11:10:43.723,99.2000,100
40244352978481,11:10:44.352,99.1900,130
40244353003307,11:10:44.353,99.1900,150
40270456722149,11:11:10.456,99.1900,100
40270456810367,11:11:10.456,99.1700,100
40271780615752,11:11:11.780,99.1900,100
40277366879246,11:11:17.366,99.1700,100
40281061223211,11:11:21.061,99.1500,200
40281061223211,11:11:21.061,99.1500,13
40281061927090,11:11:21.061,99.1500,87
40294467383218,11:11:34.467,99.1300,200
40294467383218,11:11:34.467,99.1300,64
40294467398842,11:11:34.467,99.1300,36
40294468256422,11:11:34.468,99.1100,1
40294468257030,11:11:34.468,99.1100,1
40294468257505,11:11:34.468,99.1100,1
40294468260012,11:11:34.468,99.1100,1
40294468260521,11:11:34.468,99.1100,3
40294468261812,11:11:34.468,99.1100,1
40294468264446,11:11:34.468,99.1100,6
40294468275371,11:11:34.468,99.1100,1
40294468275960,11:11:34.468,99.1100,1
40294468277335,11:11:34.468,99.1100,1
40294468303162,11:11:34.468,99.1100,83
40294468303162,11:11:34.468,99.1100,17
40294468366716,11:11:34.468,99.1100,36
40294468402776,11:11:34.468,99.1100,11
40294468438426,11:11:34.468,99.1100,25
40294468806211,11:11:34.468,99.1100,11
40303289859414,11:11:43.289,99.1400,100
40303289916413,11:11:43.289,99.1400,100
40303602174967,11:11:43.602,99.1500,100
40317114280516,11:11:57.114,99.1600,82
40317114848785,11:11:57.114,99.1600,18
40317114848785,11:11:57.114,99.1600,50
40317114863044,11:11:57.114,99.1600,50
40319403820230,11:11:59.403,99.1700,100
40322062396205,11:12:02.062,99.1800,100
40323441086029,11:12:03.441,99.1900,200
40323441086029,11:12:03.441,99.1900,100
40323441086029,11:12:03.441,99.1900,100
40324497692457,11:12:04.497,99.1900,200
40324497692457,11:12:04.497,99.2000,100
40325913763181,11:12:05.913,99.2000,100
40325913763181,11:12:05.913,99.2100,6
40325913763181,11:12:05.913,99.2200,8
40325913763181,11:12:05.913,99.2200,100
40326907379102,11:12:06.907,99.2300,100
40327858869656,11:12:07.858,99.2600,5
40327858869656,11:12:07.858,99.2600,100
40328769036318,11:12:08.769,99.2800,100
40328769036318,11:12:08.769,99.2800,100
40329984860841,11:12:09.984,99.2900,100
40331615659022,11:12:11.615,99.3200,100
40332397058763,11:12:12.397,99.3300,100
40332397058763,11:12:12.397,99.3300,100
40332397058763,11:12:12.397,99.3300,100
40351259379667,11:12:31.259,99.3600,100
40351262529697,11:12:31.262,99.3600,100
40351271301150,11:12:31.271,99.3400,10
40351271301150,11:12:31.271,99.3400,55
40362563590629,11:12:42.563,99.3100,6
40362563590629,11:12:42.563,99.3100,100
40362563590629,11:12:42.563,99.3100,1
40362565093983,11:12:42.565,99.3000,100
40362565093983,11:12:42.565,99.3000,100
40362566066485,11:12:42.566,99.2900,9
40362566091388,11:12:42.566,99.2900,91
40362566091388,11:12:42.566,99.2900,100
40366909332891,11:12:46.909,99.3200,200
40383540815244,11:13:03.540,99.2700,100
40383540815244,11:13:03.540,99.2700,60
40383540844390,11:13:03.540,99.2700,40
40383547035399,11:13:03.547,99.2300,1
40383547158832,11:13:03.547,99.2300,4
40383547385233,11:13:03.547,99.2300,2
40383547590513,11:13:03.547,99.2300,1
40383547710248,11:13:03.547,99.2300,1
40383547951146,11:13:03.547,99.2300,2
40392678816557,11:13:12.678,99.2600,10
40426713083426,11:13:46.713,99.2800,17
40426713084953,11:13:46.713,99.2800,83
40426713084953,11:13:46.713,99.2900,1
40426713084953,11:13:46.713,99.2900,17
40426713086155,11:13:46.713,99.2900,5
40426713088383,11:13:46.713,99.2900,78
40435850729660,11:13:55.850,99.3200,100
40443331250061,11:14:03.331,99.3100,4
40446934330367,11:14:06.934,99.3000,4
40449865887902,11:14:09.865,99.2900,9
40449866266693,11:14:09.866,99.2900,91
40480010381588,11:14:40.010,99.3200,11
40481461675852,11:14:41.461,99.3500,100
40482201399651,11:14:42.201,99.3400,1
40482201400313,11:14:42.201,99.3400,3
40482201402072,11:14:42.201,99.3400,4
40482201402616,11:14:42.201,99.3400,2
40482624393271,11:14:42.624,99.3600,100
40484015486292,11:14:44.015,99.3300,100
40484016565379,11:14:44.016,99.3200,100
40484016565379,11:14:44.016,99.3200,100
40484021905377,11:14:44.021,99.3100,100
40485239587636,11:14:45.239,99.3000,1
40485240924771,11:14:45.240,99.2900,1
40485241169584,11:14:45.241,99.2900,1
40486737706790,11:14:46.737,99.2800,10
40511452423175,11:15:11.452,99.3500,48
40511452449974,11:15:11.452,99.3500,52
40520946777886,11:15:20.946,99.3500,100
40526520469878,11:15:26.520,99.3400,3
40526520584163,11:15:26.520,99.3300,100
40526520829783,11:15:26.520,99.3100,100
40565061776831,11:16:05.061,99.3400,4
40572329336817,11:16:12.329,99.3200,96
40572329471905,11:16:12.329,99.3200,4
40572669603857,11:16:12.669,99.3000,2
40579021843993,11:16:19.021,99.3000,98
40582977631812,11:16:22.977,99.2900,5
40600899503959,11:16:40.899,99.3300,1
40600899503959,11:16:40.899,99.3300,1
40600899530190,11:16:40.899,99.3300,99
40610066105390,11:16:50.066,99.3500,100
40632501122239,11:17:12.501,99.3700,100
40632501122239,11:17:12.501,99.3800,100
40632501122239,11:17:12.501,99.3800,5
40632501150844,11:17:12.501,99.3800,95
40632501150844,11:17:12.501,99.3800,5
40633026159018,11:17:13.026,99.4000,100
40633026734074,11:17:13.026,99.3900,100
40633026734074,11:17:13.026,99.4000,15
40633026734074,11:17:13.026,99.4000,100
40633026760941,11:17:13.026,99.3900,100
40634306814848,11:17:14.306,99.3900,16
40634316466853,11:17:14.316,99.3800,100
40642606749241,11:17:22.606,99.3700,10
40643629678824,11:17:23.629,99.3600,100
40643630179264,11:17:23.630,99.3500,2
40643631230520,11:17:23.631,99.3500,98
40643631230520,11:17:23.631,99.3500,2
40666091450032,11:17:46.091,99.3500,2
40694171516342,11:18:14.171,99.3500,98
40694171516342,11:18:14.171,99.3500,4
40694173832933,11:18:14.173,99.3400,100
40695773430741,11:18:15.773,99.3300,100
40716352869109,11:18:36.352,99.3300,100
40716352929908,11:18:36.352,99.3300,100
40716352939587,11:18:36.352,99.3300,100
40717499184794,11:18:37.499,99.3000,1
40717499342867,11:18:37.499,99.3000,1
40717499578555,11:18:37.499,99.3000,5
40717499725814,11:18:37.499,99.3000,19
40717499895978,11:18:37.499,99.3000,74
40717500593154,11:18:37.500,99.2900,100
40728396284941,11:18:48.396,99.3200,100
40728396284941,11:18:48.396,99.3200,6
40728396284941,11:18:48.396,99.3200,100
40728921728564,11:18:48.921,99.3200,33
40735673305491,11:18:55.673,99.3600,100
40740171065593,11:19:00.171,99.3900,100
40740171208618,11:19:00.171,99.3900,100
40751365327396,11:19:11.365,99.4100,100
40751365327396,11:19:11.365,99.4100,100
40751365327396,11:19:11.365,99.4100,1
40751365327396,11:19:11.365,99.4100,35
40751365333505,11:19:11.365,99.4100,1
40751367027102,11:19:11.367,99.4100,100
40787087012399,11:19:47.087,99.3700,200
40811675357362,11:20:11.675,99.3800,97
40811675388817,11:20:11.675,99.3800,3
40835376010237,11:20:35.376,99.3600,4
40835376460944,11:20:35.376,99.3600,2
40835377329267,11:20:35.377,99.3400,3
40835377920628,11:20:35.377,99.3300,5
40842911139968,11:20:42.911,99.3200,99
40842911270423,11:20:42.911,99.3200,1
40880797338441,11:21:20.797,99.3000,100
40913118818605,11:21:53.118,99.3000,10
40913118818605,11:21:53.118,99.3100,51
40913118876704,11:21:53.118,99.3100,49
40924828660879,11:22:04.828,99.3300,137
40924828708198,11:22:04.828,99.3300,63
40924828708198,11:22:04.828,99.3300,4
40938162398970,11:22:18.162,99.3300,100
40938305988347,11:22:18.305,99.3500,200
40948076728654,11:22:28.076,99.3250,1
40956413215967,11:22:36.413,99.3000,100
40956413781444,11:22:36.413,99.2800,5
40956415524115,11:22:36.415,99.2800,45
40956418840006,11:22:36.418,99.2800,20
40956419018385,11:22:36.419,99.2800,5
40956419071343,11:22:36.419,99.2800,20
40956447793351,11:22:36.447,99.2800,5
40956447793351,11:22:36.447,99.2800,100
40956449694738,11:22:36.449,99.2500,1
40956449699320,11:22:36.449,99.2500,1
40956449860941,11:22:36.449,99.2500,1
40993732847881,11:23:13.732,99.3000,1
40993732847881,11:23:13.732,99.3000,99
40993732866259,11:23:13.732,99.3000,1
41043571264229,11:24:03.571,99.3250,6
41076451644675,11:24:36.451,99.3200,3
41076451644675,11:24:36.451,99.3200,3
41076451644675,11:24:36.451,99.3200,4
41076451644675,11:24:36.451,99.3400,89
41076451688188,11:24:36.451,99.3400,11
41076452496749,11:24:36.452,99.3500,78
41076452524480,11:24:36.452,99.3500,22
41081763733640,11:24:41.763,99.3800,5
41100118221592,11:25:00.118,99.4200,100
41100118574757,11:25:00.118,99.4400,55
41100118989101,11:25:00.118,99.4400,45
41105216755065,11:25:05.216,99.4400,100
41105216755065,11:25:05.216,99.4400,100
41107246086449,11:25:07.246,99.4300,85
41107246086449,11:25:07.246,99.4200,100
41107246086449,11:25:07.246,99.4200,15
41107246119292,11:25:07.246,99.4200,85
41107246119292,11:25:07.246,99.4200,4
41117177876404,11:25:17.177,99.4000,3
41117177977281,11:25:17.177,99.4000,2
41117177977281,11:25:17.177,99.3900,2
41117178046024,11:25:17.178,99.3900,3
41123622937564,11:25:23.622,99.3900,2
41123622937564,11:25:23.622,99.3900,1
41123622937564,11:25:23.622,99.3900,1
41135354824137,11:25:35.354,99.3700,7
41138444057786,11:25:38.444,99.3300,5
41138444084921,11:25:38.444,99.3300,95
41138444219619,11:25:38.444,99.3100,5
41138444312414,11:25:38.444,99.3100,10
41138444379775,11:25:38.444,99.3100,5
41138444461464,11:25:38.444,99.3100,20
41138444533450,11:25:38.444,99.3100,35
41138445154214,11:25:38.445,99.3000,5
41138445227687,11:25:38.445,99.3000,15
41138463925846,11:25:38.463,99.3200,1
41138463925846,11:25:38.463,99.3200,2
41138463925846,11:25:38.463,99.3200,2
41138463925846,11:25:38.463,99.3200,2
41138463925846,11:25:38.463,99.3200,1
41138463925846,11:25:38.463,99.3200,1
41138463959672,11:25:38.463,99.3300,91
41142599170163,11:25:42.599,99.3300,75
41142599224222,11:25:42.599,99.3300,25
41142624123239,11:25:42.624,99.3100,100
41142629541228,11:25:42.629,99.3100,100
41142815017845,11:25:42.815,99.2900,100
41143998186903,11:25:43.998,99.2500,2
41143998187442,11:25:43.998,99.2500,1
41143998189911,11:25:43.998,99.2500,3
41143998190409,11:25:43.998,99.2500,1
41143998192901,11:25:43.998,99.2500,3
41143998194175,11:25:43.998,99.2500,4
41163951587536,11:26:03.951,99.2700,5
41163952544706,11:26:03.952,99.2600,10
41170423427112,11:26:10.423,99.2200,34
41170423427112,11:26:10.423,99.2200,100
41175682980087,11:26:15.682,99.2300,1
41175682980087,11:26:15.682,99.2300,99
41175683065782,11:26:15.683,99.2300,1
41182638860115,11:26:22.638,99.2000,100
41182638860115,11:26:22.638,99.2000,100
41182639728358,11:26:22.639,99.1900,23
41182639728358,11:26:22.639,99.1800,100
41182639728358,11:26:22.639,99.1800,77
41205235097702,11:26:45.235,99.2400,100
41206057153361,11:26:46.057,99.2500,100
41206057153361,11:26:46.057,99.2500,100
41207054564046,11:26:47.054,99.2700,100
41207054564046,11:26:47.054,99.2700,100
41207628818270,11:26:47.628,99.2800,10
41207628818270,11:26:47.628,99.2800,100
41207628818270,11:26:47.628,99.2800,100
41207628818270,11:26:47.628,99.2900,100
41207628818270,11:26:47.628,99.2900,100
41207630301278,11:26:47.630,99.3000,100
41207630337046,11:26:47.630,99.3000,100
41207630340144,11:26:47.630,99.3000,78
41207630364097,11:26:47.630,99.3000,22
41207630364097,11:26:47.630,99.3000,100
41207630364097,11:26:47.630,99.3000,100
41209789855287,11:26:49.789,99.2900,100
41209790472456,11:26:49.790,99.2800,100
41211079588164,11:26:51.079,99.2700,100
41221511505808,11:27:01.511,99.2900,100
41252119891557,11:27:32.119,99.2100,49
41252120557089,11:27:32.120,99.2100,51
41275316963606,11:27:55.316,99.2200,179
41275316963606,11:27:55.316,99.2200,100
41275317201999,11:27:55.317,99.2300,100
41277496290106,11:27:57.496,99.2400,100
41280289967285,11:28:00.289,99.2600,16
41283043210591,11:28:03.043,99.2600,100
41283371886695,11:28:03.371,99.2800,100
41285031204541,11:28:05.031,99.2900,100
41288480618305,11:28:08.480,99.3000,100
41305462213497,11:28:25.462,99.2800,100
41305463174751,11:28:25.463,99.2800,5
41340581916241,11:29:00.581,99.2300,100
41340581916241,11:29:00.581,99.2300,100
41350708942500,11:29:10.708,99.2100,100
41351971776413,11:29:11.971,99.2200,100
41351971914634,11:29:11.971,99.2000,61
41354106936355,11:29:14.106,99.2400,61
41354109018469,11:29:14.109,99.2600,100
41354304137285,11:29:14.304,99.2600,100
41354304742202,11:29:14.304,99.2700,100
41354304742202,11:29:14.304,99.2700,100
41356271793566,11:29:16.271,99.2700,100
41356616760967,11:29:16.616,99.2800,100
41357647229556,11:29:17.647,99.2800,100
41357647255350,11:29:17.647,99.2800,1
41357647255350,11:29:17.647,99.2800,100
41357782124658,11:29:17.782,99.2900,100
41357782852682,11:29:17.782,99.3000,100
41357999378572,11:29:17.999,99.3000,100
41357999378572,11:29:17.999,99.3000,100
41360407746462,11:29:20.407,99.3100,100
41360613435717,11:29:20.613,99.3100,200
41361843880371,11:29:21.843,99.2900,200
41361988330989,11:29:21.988,99.3000,100
41361988330989,11:29:21.988,99.3000,100
41362163755706,11:29:22.163,99.3100,100
41362163755706,11:29:22.163,99.3100,100
41362387109106,11:29:22.387,99.3100,100
41362387109106,11:29:22.387,99.3100,100
41362536456233,11:29:22.536,99.3100,100
41371510253432,11:29:31.510,99.2400,100
41371510253432,11:29:31.510,99.2400,200
41403309242558,11:30:03.309,99.2700,17
41403309255364,11:30:03.309,99.2700,83
41406169834449,11:30:06.169,99.2900,200
41406169834449,11:30:06.169,99.2800,100
41429121793805,11:30:29.121,99.3400,100
41515249919975,11:31:55.249,99.4000,1
41515249950655,11:31:55.249,99.4000,99
41526622941992,11:32:06.622,99.3800,100
41526623020863,11:32:06.623,99.3800,3
41527093737882,11:32:07.093,99.3700,100
41538344662050,11:32:18.344,99.3600,100
41549155238539,11:32:29.155,99.3300,100
41574892911253,11:32:54.892,99.3400,86
41574892938658,11:32:54.892,99.3400,14
41574892938658,11:32:54.892,99.3400,100
41574892938658,11:32:54.892,99.3400,1
41574897982826,11:32:54.897,99.3400,100
41574898095897,11:32:54.898,99.3400,100
41624966211903,11:33:44.966,99.3400,10
41624966270705,11:33:44.966,99.3400,100
41624966322564,11:33:44.966,99.3400,90
41632019737982,11:33:52.019,99.3100,100
41632044426019,11:33:52.044,99.2900,100
41655190523239,11:34:15.190,99.3300,100
41663883068827,11:34:23.883,99.3500,1
41688493651268,11:34:48.493,99.3400,100
41688493651268,11:34:48.493,99.3400,4
41698658571180,11:34:58.658,99.3500,2
41712955787077,11:35:12.955,99.3800,100
41712955851839,11:35:12.955,99.3900,100
41712956083768,11:35:12.956,99.3900,1
41770502507570,11:36:10.502,99.3600,1
41792104329610,11:36:32.104,99.3300,100
41792104329610,11:36:32.104,99.3300,4
41792104362098,11:36:32.104,99.3300,100
41796065480765,11:36:36.065,99.3200,100
41796065507064,11:36:36.065,99.3200,100
41806415938682,11:36:46.415,99.3100,51
41806415962665,11:36:46.415,99.3100,49
41831685036477,11:37:11.685,99.3100,100
41831685076103,11:37:11.685,99.3100,100
41831711401031,11:37:11.711,99.3100,100
41863610510103,11:37:43.610,99.3400,14
41864355041509,11:37:44.355,99.3400,86
41864355041509,11:37:44.355,99.3500,14
41864374142716,11:37:44.374,99.3500,14
41865218591442,11:37:45.218,99.3500,72
41865241492956,11:37:45.241,99.3800,100
41865241492956,11:37:45.241,99.3900,5
41865241492956,11:37:45.241,99.3900,95
41870692361511,11:37:50.692,99.3600,5
41870692386879,11:37:50.692,99.3600,95
41870692386879,11:37:50.692,99.3600,100
41870693686882,11:37:50.693,99.3500,100
41870693736603,11:37:50.693,99.3500,100
41870693765440,11:37:50.693,99.3500,100
41873081616570,11:37:53.081,99.3400,5
41873081641767,11:37:53.081,99.3400,95
41873081641767,11:37:53.081,99.3400,100
41875379423695,11:37:55.379,99.3450,1
41883721381051,11:38:03.721,99.3500,20
41883721406437,11:38:03.721,99.3500,180
41883721406437,11:38:03.721,99.3500,100
41883721406437,11:38:03.721,99.3500,100
41883721812268,11:38:03.721,99.3400,20
41883721998592,11:38:03.721,99.3400,16
41883722757208,11:38:03.722,99.3400,20
41883723328379,11:38:03.723,99.3400,89
41883723362965,11:38:03.723,99.3400,11
41883723362965,11:38:03.723,99.3400,4
41884853511658,11:38:04.853,99.3200,98
41911780275408,11:38:31.780,99.3000,100
41911780916258,11:38:31.780,99.2900,12
41911780941572,11:38:31.780,99.2900,88
41911780941572,11:38:31.780,99.2900,100
41912317139891,11:38:32.317,99.2600,100
41912317139891,11:38:32.317,99.2600,100
41912317139891,11:38:32.317,99.2600,100
41914087134268,11:38:34.087,99.2400,100
41914100069986,11:38:34.100,99.2300,100
41948658340137,11:39:08.658,99.2200,100
41948658340137,11:39:08.658,99.2200,49
41963120744990,11:39:23.120,99.2000,2
41963120747931,11:39:23.120,99.2000,3
41963120749583,11:39:23.120,99.2000,6
41963120751121,11:39:23.120,99.2000,4
41963120751765,11:39:23.120,99.2000,3
41963120753439,11:39:23.120,99.2000,5
41963120756299,11:39:23.120,99.2000,2
41963120757912,11:39:23.120,99.2000,1
41963120758514,11:39:23.120,99.2000,3
41963120761080,11:39:23.120,99.2000,4
41963120771760,11:39:23.120,99.2000,167
41963120771760,11:39:23.120,99.2000,65
41963120771760,11:39:23.120,99.2000,31
41966915868932,11:39:26.915,99.2200,100
41970417743007,11:39:30.417,99.2100,1
41970418939124,11:39:30.418,99.2100,100
41979047782243,11:39:39.047,99.2000,30
41979047854991,11:39:39.047,99.2000,70
41981364634460,11:39:41.364,99.1800,2
41981364660463,11:39:41.364,99.1800,98
41981364660463,11:39:41.364,99.1800,100
42003977706039,11:40:03.977,99.1700,100
42005789276342,11:40:05.789,99.1800,12
42005789276342,11:40:05.789,99.1800,100
42017419006568,11:40:17.419,99.1900,6
42021735863920,11:40:21.735,99.2300,14
42021847229398,11:40:21.847,99.2300,86
42021847229398,11:40:21.847,99.2300,100
42037528860376,11:40:37.528,99.2300,100
42054389343984,11:40:54.389,99.2300,100
42054389370329,11:40:54.389,99.2300,32
42054389370329,11:40:54.389,99.2300,46
42054389872250,11:40:54.389,99.2200,21
42074397550795,11:41:14.397,99.2200,100
42074399206759,11:41:14.399,99.2400,53
42086186233026,11:41:26.186,99.2000,6
42089104489497,11:41:29.104,99.1900,100
42111566859531,11:41:51.566,99.1700,100
42118066381178,11:41:58.066,99.2000,100
42125249279745,11:42:05.249,99.2200,100
42129406143919,11:42:09.406,99.2600,10
42129406897861,11:42:09.406,99.2650,5
42129409060815,11:42:09.409,99.2650,5
42129409898343,11:42:09.409,99.2650,20
42130882157953,11:42:10.882,99.2750,100
42130882157953,11:42:10.882,99.2750,60
42130882157953,11:42:10.882,99.3000,100
42147048198160,11:42:27.048,99.2600,100
42147049549117,11:42:27.049,99.2500,6
42147049929871,11:42:27.049,99.2400,15
42147565019584,11:42:27.565,99.2400,85
42151752827204,11:42:31.752,99.2800,100
42151752827204,11:42:31.752,99.2900,100
42151753538379,11:42:31.753,99.2800,100
42151753538379,11:42:31.753,99.2800,100
42151754059580,11:42:31.754,99.2800,48
42151755438952,11:42:31.755,99.2800,52
42151757649626,11:42:31.757,99.2900,48
42162523396818,11:42:42.523,99.2400,100
42223996378819,11:43:43.996,99.3600,100
42224015246475,11:43:44.015,99.3900,100
42224016162386,11:43:44.016,99.4000,100
42225361576375,11:43:45.361,99.4100,100
42225361576375,11:43:45.361,99.4100,100
42226099580046,11:43:46.099,99.4200,19
42226099580046,11:43:46.099,99.4200,100
42226099580046,11:43:46.099,99.4400,100
42251408711058,11:44:11.408,99.4200,100
42277756385590,11:44:37.756,99.4200,70
42277756385590,11:44:37.756,99.4100,100
42277756385590,11:44:37.756,99.4100,100
42277756385590,11:44:37.756,99.4100,30
42277756435049,11:44:37.756,99.4100,70
42284827263507,11:44:44.827,99.3700,5
42288740026295,11:44:48.740,99.3500,1
42297920256116,11:44:57.920,99.4000,30
42324598196628,11:45:24.598,99.3100,100
42324604496613,11:45:24.604,99.2900,70
42327342466759,11:45:27.342,99.3000,100
42345334477250,11:45:45.334,99.2500,6
42345334479266,11:45:45.334,99.2500,2
42345334481712,11:45:45.334,99.2500,3
42345334483066,11:45:45.334,99.2500,2
42345334484607,11:45:45.334,99.2500,3
42345334486015,11:45:45.334,99.2500,3
42345334486467,11:45:45.334,99.2500,6
42345334487943,11:45:45.334,99.2500,5
42369974734182,11:46:09.974,99.2900,100
42369981732688,11:46:09.981,99.2900,5
42376622609543,11:46:16.622,99.2900,1
42441996062273,11:47:21.996,99.3400,100
42441997103733,11:47:21.997,99.3300,200
42442756675787,11:47:22.756,99.3200,77
42442756913462,11:47:22.756,99.3200,23
42442757493667,11:47:22.757,99.3100,100
42476226188773,11:47:56.226,99.2700,63
42476226216268,11:47:56.226,99.2700,37
42476230792544,11:47:56.230,99.2300,1
42491156497282,11:48:11.156,99.2300,5
42499447037927,11:48:19.447,99.1900,100
42528129619966,11:48:48.129,99.2300,100
42562502924379,11:49:22.502,99.3000,3
42562502957632,11:49:22.502,99.3000,48
42577965466472,11:49:37.965,99.3200,100
42577965481141,11:49:37.965,99.3300,100
42578180089672,11:49:38.180,99.3100,5
42609564422991,11:50:09.564,99.3100,100
42609564422991,11:50:09.564,99.3100,100
42609564422991,11:50:09.564,99.3100,5
42609849399980,11:50:09.849,99.2700,99
42612893167460,11:50:12.893,99.2500,1
42612894073454,11:50:12.894,99.2300,1
42671765381958,11:51:11.765,99.2700,100
42681811106665,11:51:21.811,99.2900,100
42681811106665,11:51:21.811,99.2900,100
42703242401929,11:51:43.242,99.2900,100
42703242401929,11:51:43.242,99.3000,100
42729492233327,11:52:09.492,99.2300,2
42729492695939,11:52:09.492,99.2300,3
42729517005136,11:52:09.517,99.2200,100
42756554710265,11:52:36.554,99.1900,10
42773314813172,11:52:53.314,99.2000,100
42773314813172,11:52:53.314,99.2000,100
42779638585720,11:52:59.638,99.2100,100
42793130405009,11:53:13.130,99.2600,100
42793130433340,11:53:13.130,99.2600,16
42795410003654,11:53:15.410,99.2400,1
42795410003654,11:53:15.410,99.2400,43
42795410029378,11:53:15.410,99.2400,57
42886825071547,11:54:46.825,99.2500,51
42893456287083,11:54:53.456,99.2400,47
42894662934740,11:54:54.662,99.2300,6
42900501027140,11:55:00.501,99.2300,100
42900501027140,11:55:00.501,99.2300,100
42900508388685,11:55:00.508,99.2500,8
42900508413029,11:55:00.508,99.2500,92
42900508413029,11:55:00.508,99.2500,100
42901501488055,11:55:01.501,99.2600,100
42903494138785,11:55:03.494,99.2600,100
42903494168523,11:55:03.494,99.2600,101
42911380053196,11:55:11.380,99.2800,51
42911380487733,11:55:11.380,99.2700,51
42911380872054,11:55:11.380,99.2700,100
42911384460366,11:55:11.384,99.2600,100
42920241806267,11:55:20.241,99.2000,100
42934914214413,11:55:34.914,99.2200,51
42956057321896,11:55:56.057,99.2400,6
42976071696631,11:56:16.071,99.2500,51
42976121624368,11:56:16.121,99.2300,4
42976121625683,11:56:16.121,99.2300,2
42976121626342,11:56:16.121,99.2300,3
42976121627995,11:56:16.121,99.2300,2
42979514948914,11:56:19.514,99.2100,100
42983779709724,11:56:23.779,99.2100,51
42983779770542,11:56:23.779,99.2000,100
42983779791874,11:56:23.779,99.2000,6
42988481972342,11:56:28.481,99.2000,51
43007960669829,11:56:47.960,99.1900,1
43072421330516,11:57:52.421,99.1800,100
43075533627517,11:57:55.533,99.1700,70
43110012772522,11:58:30.012,99.1900,68
43110012834064,11:58:30.012,99.1900,81
43110012834064,11:58:30.012,99.1900,15
43153452089498,11:59:13.452,99.2200,17
43153452605589,11:59:13.452,99.2300,5
43163454957101,11:59:23.454,99.2300,7
43163454957101,11:59:23.454,99.2300,100
43191116779065,11:59:51.116,99.2300,100
43191118197345,11:59:51.118,99.2300,200
43203293146664,12:00:03.293,99.2400,200
43203293214526,12:00:03.293,99.2400,100
43203293256562,12:00:03.293,99.2400,100
43203293706892,12:00:03.293,99.2400,51
43203293726076,12:00:03.293,99.2400,30
43203293733958,12:00:03.293,99.2400,58
43203294103132,12:00:03.294,99.2400,61
43203294201073,12:00:03.294,99.2300,1
43217074036012,12:00:17.074,99.2700,4
43227814665355,12:00:27.814,99.2800,1
43240179134918,12:00:40.179,99.2800,1
43240182378252,12:00:40.182,99.2800,100
43245798351713,12:00:45.798,99.2700,7
43245822452699,12:00:45.822,99.2500,100
43245822492625,12:00:45.822,99.2500,100
43246087181967,12:00:46.087,99.2400,148
43246087205548,12:00:46.087,99.2400,252
43246849922480,12:00:46.849,99.2500,24
43246850775958,12:00:46.850,99.2500,100
43246851260339,12:00:46.851,99.2500,100
43278999094635,12:01:18.999,99.2300,100
43279898744256,12:01:19.898,99.1800,1
43279898784177,12:01:19.898,99.1800,99
43279900292189,12:01:19.900,99.1700,1
43320291078406,12:02:00.291,99.1700,100
43320291078406,12:02:00.291,99.1700,100
43320291078406,12:02:00.291,99.1700,100
43329799478000,12:02:09.799,99.1700,100
43329799478000,12:02:09.799,99.1700,3
43329799487509,12:02:09.799,99.1700,97
43329799487509,12:02:09.799,99.1700,100
43329799487509,12:02:09.799,99.1700,3
43329799489558,12:02:09.799,99.1700,70
43329799765457,12:02:09.799,99.1700,27
43333179860834,12:02:13.179,99.1900,100
43333179860834,12:02:13.179,99.1900,27
43333179860834,12:02:13.179,99.1900,73
43333179935514,12:02:13.179,99.1900,27
43339207262996,12:02:19.207,99.2000,20
43345019828650,12:02:25.019,99.2100,51
43345019852669,12:02:25.019,99.2100,49
43356669519500,12:02:36.669,99.2500,1
43370258714488,12:02:50.258,99.2100,100
43382086982302,12:03:02.086,99.2800,30
43388532619382,12:03:08.532,99.2400,100
43388532619382,12:03:08.532,99.2400,7
43388533614435,12:03:08.533,99.2300,3
43388535054624,12:03:08.535,99.2300,4
43411720428561,12:03:31.720,99.2100,1
43411720428561,12:03:31.720,99.2100,99
43426571300104,12:03:46.571,99.2500,100
43426571300104,12:03:46.571,99.2600,101
43436412518908,12:03:56.412,99.2700,20
43436412543722,12:03:56.412,99.2700,80
43436412543722,12:03:56.412,99.2700,1
43455476431343,12:04:15.476,99.3000,100
43455777986961,12:04:15.777,99.2900,10
43459750262475,12:04:19.750,99.3100,1
43467366507596,12:04:27.366,99.3000,6
43467366507596,12:04:27.366,99.3000,94
43467366573812,12:04:27.366,99.3000,6
43467367424634,12:04:27.367,99.2800,3
43469005594106,12:04:29.005,99.2900,1
43470039728096,12:04:30.039,99.2800,100
43470039728096,12:04:30.039,99.2800,100
43500127540038,12:05:00.127,99.2800,200
43607593407592,12:06:47.593,99.2500,100
43607593925187,12:06:47.593,99.2300,3
43607600194908,12:06:47.600,99.2300,97
43607600556931,12:06:47.600,99.2200,2
43610884068799,12:06:50.884,99.2100,10
43610884269972,12:06:50.884,99.2100,5
43610884311423,12:06:50.884,99.2100,5
43610884458250,12:06:50.884,99.2100,5
43610884502103,12:06:50.884,99.2100,5
43611924329636,12:06:51.924,99.2500,31
43617666222560,12:06:57.666,99.2500,3
43621456468138,12:07:01.456,99.2800,100
43633790800592,12:07:13.790,99.2700,2
43633790951137,12:07:13.790,99.2700,3
43633821717298,12:07:13.821,99.2300,2
43633821861623,12:07:13.821,99.2300,2
43633822632541,12:07:13.822,99.2300,100
43633822632541,12:07:13.822,99.2300,100
43633822664867,12:07:13.822,99.2300,100
43633826691280,12:07:13.826,99.2200,10
43633826752895,12:07:13.826,99.2200,5
43633827013186,12:07:13.827,99.2200,7
43633827013186,12:07:13.827,99.2200,3
43640023417999,12:07:20.023,99.2100,100
43670761953862,12:07:50.761,99.2500,18
43670761953862,12:07:50.761,99.2500,51
43694534748227,12:08:14.534,99.2500,49
43694535285303,12:08:14.535,99.2600,5
43714107517615,12:08:34.107,99.2500,100
43714107546472,12:08:34.107,99.2500,5
43735132005750,12:08:55.132,99.2100,1
43740231077664,12:09:00.231,99.2200,100
43809463748386,12:10:09.463,99.2800,100
43824736692113,12:10:24.736,99.2800,10
43833968214442,12:10:33.968,99.2700,100
43833968404405,12:10:33.968,99.2700,6
43857141945120,12:10:57.141,99.2700,10
43892348976423,12:11:32.348,99.3000,62
43892349002974,12:11:32.349,99.3000,38
43892349002974,12:11:32.349,99.3000,100
43917286025741,12:11:57.286,99.3000,19
43934281749662,12:12:14.281,99.3000,5
43960355953365,12:12:40.355,99.2700,100
43960368268558,12:12:40.368,99.2400,2
43966565575314,12:12:46.565,99.2500,1
43975939305446,12:12:55.939,99.2900,100
43975939331459,12:12:55.939,99.2900,1
44013087847710,12:13:33.087,99.3200,45
44019112983388,12:13:39.112,99.3000,4
44053587189505,12:14:13.587,99.2700,100
44054501739196,12:14:14.501,99.2700,20
44054503146576,12:14:14.503,99.2700,80
44054503146576,12:14:14.503,99.2700,7
44054503959962,12:14:14.503,99.2500,4
44054505360844,12:14:14.505,99.2500,20
44054510519465,12:14:14.510,99.2500,76
44057718072249,12:14:17.718,99.2100,2
44057718072249,12:14:17.718,99.2100,38
44057718776629,12:14:17.718,99.2100,1
44057719095451,12:14:17.719,99.2100,2
44060986929713,12:14:20.986,99.2000,2
44061004531826,12:14:21.004,99.2100,200
44061005209225,12:14:21.005,99.2200,100
44061005209225,12:14:21.005,99.2200,100
44061046459414,12:14:21.046,99.2100,96
44061046463207,12:14:21.046,99.2100,4
44155326509342,12:15:55.326,99.2600,5
44155326509342,12:15:55.326,99.2500,100
44155326509342,12:15:55.326,99.2500,95
44155329414955,12:15:55.329,99.2500,5
44173696381194,12:16:13.696,99.3000,100
44173698631355,12:16:13.698,99.3100,100
44214710351982,12:16:54.710,99.2900,1
44244927660098,12:17:24.927,99.3200,19
44276586365822,12:17:56.586,99.3100,6
44284253474734,12:18:04.253,99.2800,5
44284294872531,12:18:04.294,99.2600,2
44287105344337,12:18:07.105,99.3200,100
44287105344337,12:18:07.105,99.3200,100
44287105693640,12:18:07.105,99.3200,30
44318101638269,12:18:38.101,99.2600,100
44318101638269,12:18:38.101,99.2600,100
44318103878249,12:18:38.103,99.2600,100
44318104661306,12:18:38.104,99.2600,100
44318105742332,12:18:38.105,99.2600,100
44318105766692,12:18:38.105,99.2600,70
44318436549683,12:18:38.436,99.2600,36
44318531860144,12:18:38.531,99.2800,60
44318531883596,12:18:38.531,99.2800,40
44318531883596,12:18:38.531,99.2800,100
44318531962448,12:18:38.531,99.2800,100
44320390022545,12:18:40.390,99.2500,100
44320390022545,12:18:40.390,99.2500,100
44320761008246,12:18:40.761,99.2400,100
44320761008246,12:18:40.761,99.2400,85
44320761702110,12:18:40.761,99.2300,2
44320761730835,12:18:40.761,99.2300,3
44320761876099,12:18:40.761,99.2300,1
44322470905794,12:18:42.470,99.2300,40
44323553483133,12:18:43.553,99.2300,54
44327863350541,12:18:47.863,99.2200,2
44327863350541,12:18:47.863,99.2100,4
44327863350541,12:18:47.863,99.2100,94
44360070123626,12:19:20.070,99.2300,100
44368469602412,12:19:28.469,99.2100,30
44368469849210,12:19:28.469,99.2100,60
44368469912680,12:19:28.469,99.2100,10
44368469912680,12:19:28.469,99.2100,90
44368469994782,12:19:28.469,99.2100,10
44368471714878,12:19:28.471,99.1900,2
44368472347836,12:19:28.472,99.1800,2
44368473348489,12:19:28.473,99.1800,40
44368474347337,12:19:28.474,99.1700,60
44368476257882,12:19:28.476,99.1700,9
44368476394969,12:19:28.476,99.1700,8
44368476477725,12:19:28.476,99.1700,23
44368476477725,12:19:28.476,99.1700,2
44375441074112,12:19:35.441,99.1600,100
44375441129228,12:19:35.441,99.1600,2
44375441129228,12:19:35.441,99.1600,98
44375441137538,12:19:35.441,99.1600,2
44379606658260,12:19:39.606,99.1600,100
44379606658260,12:19:39.606,99.1600,100
44379607365375,12:19:39.607,99.1500,5
44379607704290,12:19:39.607,99.1400,2
44379608259884,12:19:39.608,99.1300,2
44379610437718,12:19:39.610,99.1200,2
44379610437718,12:19:39.610,99.1200,4
44379610531703,12:19:39.610,99.1200,20
44379610566346,12:19:39.610,99.1200,32
44379611304310,12:19:39.611,99.1200,40
44409061508397,12:20:09.061,99.1700,100
44409061531001,12:20:09.061,99.1800,100
44409062744961,12:20:09.062,99.1700,100
44409063331133,12:20:09.063,99.1500,100
44409064421975,12:20:09.064,99.1400,6
44409064421975,12:20:09.064,99.1400,94
44409064453433,12:20:09.064,99.1400,100
44412531977486,12:20:12.531,99.1400,100
44412532386304,12:20:12.532,99.1300,100
44412532386304,12:20:12.532,99.1300,6
44412532386304,12:20:12.532,99.1300,91
44412532495843,12:20:12.532,99.1300,9
44412533031764,12:20:12.533,99.1200,40
44423210063635,12:20:23.210,99.1300,51
44433991350364,12:20:33.991,99.1400,45
44433992111809,12:20:33.992,99.1100,5
44433992111809,12:20:33.992,99.1100,95
44433992181828,12:20:33.992,99.1000,2
44433992181828,12:20:33.992,99.1000,8
44433992181828,12:20:33.992,99.1000,90
44433992238352,12:20:33.992,99.1000,10
44433992238352,12:20:33.992,99.1000,90
44433992256374,12:20:33.992,99.1000,10
44433992256374,12:20:33.992,99.1000,90
44433992325597,12:20:33.992,99.1000,10
44433993447475,12:20:33.993,99.0900,100
44433993488550,12:20:33.993,99.0900,100
44445952573825,12:20:45.952,99.1000,92
44445952600462,12:20:45.952,99.1000,8
44445952600462,12:20:45.952,99.1000,300
44445952600462,12:20:45.952,99.1000,200
44446077274133,12:20:46.077,99.1200,100
44446077274133,12:20:46.077,99.1200,23
44446077854503,12:20:46.077,99.1100,100
44446078837272,12:20:46.078,99.0800,100
44446078906932,12:20:46.078,99.0800,100
44446078920970,12:20:46.078,99.0800,100
44446078953082,12:20:46.078,99.0800,100
44453065679275,12:20:53.065,99.1000,100
44453065679275,12:20:53.065,99.1000,100
44453065679275,12:20:53.065,99.1000,200
44458385157487,12:20:58.385,99.1000,100
44462821509718,12:21:02.821,99.0900,2
44466968389105,12:21:06.968,99.0800,31
44466968440154,12:21:06.968,99.0800,69
44466968440154,12:21:06.968,99.0800,51
44466971533128,12:21:06.971,99.0700,2
44483976829737,12:21:23.976,99.1100,5
44484692910468,12:21:24.692,99.0900,98
44484692962536,12:21:24.692,99.0900,2
44484692962536,12:21:24.692,99.0900,98
44484693017667,12:21:24.693,99.0900,2
44549536847080,12:22:29.536,99.1100,1
44549536928959,12:22:29.536,99.1100,1
44549537084462,12:22:29.537,99.1100,1
44549537615503,12:22:29.537,99.1100,1
44550240096517,12:22:30.240,99.1100,47
44553909635979,12:22:33.909,99.0900,100
44553909635979,12:22:33.909,99.0900,7
44553909635979,12:22:33.909,99.0900,100
44553910647053,12:22:33.910,99.0800,100
44553912641662,12:22:33.912,99.0700,100
44556048487256,12:22:36.048,99.0600,8
44557656362524,12:22:37.656,99.0500,2
44557656362524,12:22:37.656,99.0400,2
44567947013709,12:22:47.947,99.0800,100
44597186367565,12:23:17.186,99.0900,70
44689065812817,12:24:49.065,99.0700,50
44689065812817,12:24:49.065,99.0700,200
44689065812817,12:24:49.065,99.0600,7
44689065812817,12:24:49.065,99.0600,50
44689115578816,12:24:49.115,99.0600,50
44689115578816,12:24:49.115,99.0600,100
44689115578816,12:24:49.115,99.0600,100
44715250461928,12:25:15.250,99.0400,10
44732668594536,12:25:32.668,99.0500,1
44758522914065,12:25:58.522,99.0500,6
44758522914065,12:25:58.522,99.0500,5
44773420320522,12:26:13.420,99.0500,158
44773420320522,12:26:13.420,99.0500,7
44783995745309,12:26:23.995,99.0800,1
44784919328246,12:26:24.919,99.1000,97
44789554359519,12:26:29.554,99.0900,100
44799888208543,12:26:39.888,99.0700,100
44844322625940,12:27:24.322,99.0800,200
44861655376549,12:27:41.655,99.0900,90
44861655400582,12:27:41.655,99.0900,78
44876069504197,12:27:56.069,99.1200,100
44876072691027,12:27:56.072,99.1300,100
44876560586643,12:27:56.560,99.1400,100
44876560586643,12:27:56.560,99.1400,111
44876560612998,12:27:56.560,99.1400,203
44881257647060,12:28:01.257,99.1600,10
44882256056679,12:28:02.256,99.1700,100
44885431721951,12:28:05.431,99.1600,7
44939267094268,12:28:59.267,99.1500,100
44939560928867,12:28:59.560,99.1600,100
44948478702155,12:29:08.478,99.1400,100
45007444792367,12:30:07.444,99.1400,1
45013424475832,12:30:13.424,99.1600,49
45067840454967,12:31:07.840,99.1400,100
45067840454967,12:31:07.840,99.1400,1
45109143270418,12:31:49.143,99.1900,54
45109143270418,12:31:49.143,99.2000,46
45109143511665,12:31:49.143,99.2000,54
45110196304398,12:31:50.196,99.1900,100
45110239424208,12:31:50.239,99.2000,100
45110330879921,12:31:50.330,99.2100,19
45115242732853,12:31:55.242,99.1800,10
45125690352212,12:32:05.690,99.2100,5
45132393218454,12:32:12.393,99.1700,100
45132393218454,12:32:12.393,99.1700,6
45136268329319,12:32:16.268,99.1400,100
45136268329319,12:32:16.268,99.1400,100
45144213907131,12:32:24.213,99.1200,100
45160576903407,12:32:40.576,99.1300,45
45160577200105,12:32:40.577,99.1300,5
45160577398457,12:32:40.577,99.1300,50
45169460724484,12:32:49.460,99.0900,2
45200143209253,12:33:20.143,99.1200,100
45203503932009,12:33:23.503,99.1600,100
45203506031463,12:33:23.506,99.1800,100
45203506031463,12:33:23.506,99.1800,100
45203506031463,12:33:23.506,99.1800,100
45206952108254,12:33:26.952,99.1500,100
45207265117974,12:33:27.265,99.1200,100
45207265117974,12:33:27.265,99.1200,100
45207295828403,12:33:27.295,99.1100,21
45207450386331,12:33:27.450,99.1000,59
45282445720932,12:34:42.445,99.1000,1
45288038342087,12:34:48.038,99.0900,7
45288038342087,12:34:48.038,99.0900,93
45288038404993,12:34:48.038,99.0900,7
45298531543634,12:34:58.531,99.1100,100
45298531568051,12:34:58.531,99.1100,100
45312391068495,12:35:12.391,99.1100,50
45312391068495,12:35:12.391,99.1100,50
45327617778433,12:35:27.617,99.1200,100
45351358178625,12:35:51.358,99.1000,100
45352121069033,12:35:52.121,99.0900,100
45352122717906,12:35:52.122,99.0600,5
45352130214014,12:35:52.130,99.0500,3
45352142492320,12:35:52.142,99.0500,97
45354771214846,12:35:54.771,99.0400,5
45354771214846,12:35:54.771,99.0400,99
45356114524267,12:35:56.114,99.0400,1
45356114524267,12:35:56.114,99.0400,67
45356114565182,12:35:56.114,99.0400,33
45360280403452,12:36:00.280,99.0300,2
45372121967599,12:36:12.121,99.0300,6
45372122547977,12:36:12.122,99.0200,1
45372122547977,12:36:12.122,99.0200,100
45372122547977,12:36:12.122,99.0200,83
45373493732230,12:36:13.493,99.0300,200
45373493732230,12:36:13.493,99.0300,1
45374423521708,12:36:14.423,99.0200,100
45375553018576,12:36:15.553,99.0100,2
45375553018576,12:36:15.553,99.0100,3
45406651389366,12:36:46.651,99.0400,100
45408083281600,12:36:48.083,99.0600,5
45540580186974,12:39:00.580,99.0700,100
45540616764352,12:39:00.616,99.0400,100
45553664499099,12:39:13.664,99.0400,100
45553664499099,12:39:13.664,99.0400,6
45553664499099,12:39:13.664,99.0300,100
45558555133636,12:39:18.555,99.0400,1
45569162864205,12:39:29.162,99.0600,100
45569239199377,12:39:29.239,99.0700,100
45572249782056,12:39:32.249,99.0900,100
45572249782056,12:39:32.249,99.1100,100
45573105235107,12:39:33.105,99.1100,62
45573105259388,12:39:33.105,99.1100,38
45573105290260,12:39:33.105,99.1100,100
45587695585911,12:39:47.695,99.1700,100
45631690700757,12:40:31.690,99.1700,100
45631691328634,12:40:31.691,99.1700,100
45631692753931,12:40:31.692,99.1600,7
45693739770055,12:41:33.739,99.1600,6
45693739770055,12:41:33.739,99.1600,94
45694474145949,12:41:34.474,99.1600,6
45706075575598,12:41:46.075,99.1400,100
45706119622342,12:41:46.119,99.1300,100
45708545897440,12:41:48.545,99.0800,40
45708549189447,12:41:48.549,99.0800,20
45708549287682,12:41:48.549,99.0800,5
45708549309746,12:41:48.549,99.0800,5
45708549578539,12:41:48.549,99.0800,5
45708549641008,12:41:48.549,99.0800,10
45708550274037,12:41:48.550,99.0800,10
45708554384651,12:41:48.554,99.0800,5
45708557306792,12:41:48.557,99.0700,20
45712496951581,12:41:52.496,99.0700,78
45712496951581,12:41:52.496,99.0700,22
45712498945929,12:41:52.498,99.0700,78
45712498945929,12:41:52.498,99.0600,22
45713889628744,12:41:53.889,99.1100,100
45723655054987,12:42:03.655,99.1200,100
45765265280411,12:42:45.265,99.1500,100
45772972454064,12:42:52.972,99.1500,100
45773407691177,12:42:53.407,99.1700,51
45773408859719,12:42:53.408,99.1600,100
45773408883958,12:42:53.408,99.1600,51
45774407707645,12:42:54.407,99.1500,6
45790040229426,12:43:10.040,99.1400,6
45790040229426,12:43:10.040,99.1400,100
45829932144303,12:43:49.932,99.1100,100
45829932372455,12:43:49.932,99.1100,100
45843963900579,12:44:03.963,99.1000,6
45843964211804,12:44:03.964,99.0900,6
45844396842094,12:44:04.396,99.1000,1
45867728115734,12:44:27.728,99.1400,51
45868524418605,12:44:28.524,99.1400,100
45868589519566,12:44:28.589,99.1500,5
45905169482840,12:45:05.169,99.1900,68
46016473561019,12:46:56.473,99.2400,91
46016473679121,12:46:56.473,99.2400,9
46016474444086,12:46:56.474,99.2500,100
46016475125290,12:46:56.475,99.2600,98
46016475151829,12:46:56.475,99.2600,2
46034774952541,12:47:14.774,99.2400,100
46034774952541,12:47:14.774,99.2400,5
46083088095220,12:48:03.088,99.2100,100
46108995691500,12:48:28.995,99.2600,100
46108997345584,12:48:28.997,99.2700,100
46109021786335,12:48:29.021,99.2800,19
46125861161098,12:48:45.861,99.2500,6
46125861161098,12:48:45.861,99.2500,100
46147835196504,12:49:07.835,99.2600,1
46163250917755,12:49:23.250,99.2300,51
46163250917755,12:49:23.250,99.2300,49
46163252000338,12:49:23.252,99.2300,2
46167340433813,12:49:27.340,99.2700,80
46203034818396,12:50:03.034,99.2700,100
46204376399006,12:50:04.376,99.2600,51
46204376399006,12:50:04.376,99.2600,4
46220350695315,12:50:20.350,99.2700,100
46230092948370,12:50:30.092,99.2600,3
46230100577534,12:50:30.100,99.2500,100
46276353699204,12:51:16.353,99.2600,30
46276353723648,12:51:16.353,99.2600,49
46276353780602,12:51:16.353,99.2600,21
46276353780602,12:51:16.353,99.2600,5
46281480901239,12:51:21.480,99.2700,51
46283511289801,12:51:23.511,99.2200,100
46289961492605,12:51:29.961,99.2200,100
46289961492605,12:51:29.961,99.2200,2
46289961729323,12:51:29.961,99.2200,8
46311450126657,12:51:51.450,99.2000,102
46311450253986,12:51:51.450,99.2000,200
46311450261174,12:51:51.450,99.2000,51
46311450262997,12:51:51.450,99.2000,47
46311450262997,12:51:51.450,99.2000,82
46311450282239,12:51:51.450,99.2000,18
46311450282239,12:51:51.450,99.2000,100
46311450282239,12:51:51.450,99.2000,100
46311450708544,12:51:51.450,99.1900,100
46311450708544,12:51:51.450,99.1900,100
46311451880592,12:51:51.451,99.1800,5
46311595576353,12:51:51.595,99.1800,39
46311595576353,12:51:51.595,99.1800,100
46330858156925,12:52:10.858,99.1700,62
46338906947981,12:52:18.906,99.2000,51
46338906973040,12:52:18.906,99.2000,49
46338906973040,12:52:18.906,99.2000,100
46338906973040,12:52:18.906,99.2000,141
46338908653342,12:52:18.908,99.2200,100
46367369354857,12:52:47.369,99.2300,51
46371191197059,12:52:51.191,99.2200,35
46374750896470,12:52:54.750,99.2200,3
46374752417187,12:52:54.752,99.2100,7
46397098675977,12:53:17.098,99.1800,100
46397098738560,12:53:17.098,99.1800,100
46397098746319,12:53:17.098,99.1800,100
46397099279650,12:53:17.099,99.2000,78
46412767203482,12:53:32.767,99.2000,5
46413443897195,12:53:33.443,99.2100,51
46413864273352,12:53:33.864,99.2100,100
46413864273352,12:53:33.864,99.2200,100
46418319452576,12:53:38.319,99.2200,22
46424015703536,12:53:44.015,99.2200,10
46424015765645,12:53:44.015,99.2200,68
46425088362191,12:53:45.088,99.2200,78
46428028338870,12:53:48.028,99.2000,49
46428028360744,12:53:48.028,99.2000,51
46431737192503,12:53:51.737,99.1900,100
46431737323337,12:53:51.737,99.1900,3
46431737551377,12:53:51.737,99.1900,3
46431737650533,12:53:51.737,99.1900,17
46431737684148,12:53:51.737,99.1900,3
46431737750971,12:53:51.737,99.1900,3
46431737802549,12:53:51.737,99.1900,3
46431737942196,12:53:51.737,99.1900,3
46431738004441,12:53:51.738,99.1900,3
46432339170326,12:53:52.339,99.1900,51
46432346650623,12:53:52.346,99.1900,33
46438672847722,12:53:58.672,99.1700,100
46438976627501,12:53:58.976,99.1600,100
46439265632829,12:53:59.265,99.1550,1
46444743918911,12:54:04.743,99.1500,1
46444743918911,12:54:04.743,99.1500,100
46444743918911,12:54:04.743,99.1500,7
46444745382721,12:54:04.745,99.1400,10
46452592943913,12:54:12.592,99.1300,1
46484438959322,12:54:44.438,99.1900,70
46499819245638,12:54:59.819,99.1800,100
46499819285326,12:54:59.819,99.1700,100
46499819313547,12:54:59.819,99.1600,100
46506675320237,12:55:06.675,99.1500,100
46514066679002,12:55:14.066,99.1300,2
46514067134721,12:55:14.067,99.1300,40
46514069292252,12:55:14.069,99.1300,58
46514069292252,12:55:14.069,99.1300,42
46514069318501,12:55:14.069,99.1300,58
46514069318501,12:55:14.069,99.1300,100
46514072212579,12:55:14.072,99.1300,100
46514072672539,12:55:14.072,99.1300,37
46514072683740,12:55:14.072,99.1300,63
46534997273631,12:55:34.997,99.1200,100
46534998408505,12:55:34.998,99.1100,10
46534998408505,12:55:34.998,99.1100,30
46534998438017,12:55:34.998,99.1100,70
46534999219540,12:55:34.999,99.1000,10
46534999219540,12:55:34.999,99.1000,90
46534999322445,12:55:34.999,99.1000,10
46535001852623,12:55:35.001,99.0800,10
46535001852623,12:55:35.001,99.0800,10
46535019079628,12:55:35.019,99.0900,100
46535171580507,12:55:35.171,99.1100,50
46542093631720,12:55:42.093,99.1100,18
46542093637858,12:55:42.093,99.1100,82
46555334188519,12:55:55.334,99.1300,100
46579076262462,12:56:19.076,99.1400,51
46579076262462,12:56:19.076,99.1400,56
46579076452858,12:56:19.076,99.1600,62
46579076702590,12:56:19.076,99.1300,7
46579076702590,12:56:19.076,99.1300,62
46581335971605,12:56:21.335,99.1200,100
46593114336606,12:56:33.114,99.1100,100
46593114336606,12:56:33.114,99.1100,51
46593114336606,12:56:33.114,99.1000,100
46596452370378,12:56:36.452,99.0900,2
46611115734004,12:56:51.115,99.0600,100
46611115793998,12:56:51.115,99.0600,51
46611115793998,12:56:51.115,99.0600,1
46611232435843,12:56:51.232,99.0500,100
46611232446644,12:56:51.232,99.0500,2
46611547788920,12:56:51.547,99.0500,5
46611548199544,12:56:51.548,99.0500,125
46611548224314,12:56:51.548,99.0500,70
46614504538852,12:56:54.504,99.0500,200
46614504538852,12:56:54.504,99.0600,100
46614504538852,12:56:54.504,99.0600,100
46614505127008,12:56:54.505,99.0600,100
46614505127008,12:56:54.505,99.0600,100
46614505755098,12:56:54.505,99.0500,100
46614506091543,12:56:54.506,99.0500,25
46614506091543,12:56:54.506,99.0500,75
46614506118439,12:56:54.506,99.0500,25
46614508173377,12:56:54.508,99.0400,100
46614742281396,12:56:54.742,99.0300,2
46615776058612,12:56:55.776,99.0400,100
46615776086942,12:56:55.776,99.0400,100
46615776086942,12:56:55.776,99.0400,100
46615776086942,12:56:55.776,99.0400,200
46617212538984,12:56:57.212,99.0500,51
46617212538984,12:56:57.212,99.0500,49
46617212611006,12:56:57.212,99.0500,2
46617212611006,12:56:57.212,99.0500,52
46617213461136,12:56:57.213,99.0400,51
46617213461136,12:56:57.213,99.0400,49
46617213495086,12:56:57.213,99.0400,51
46617213495086,12:56:57.213,99.0400,49
46617213521859,12:56:57.213,99.0400,51
46617213521859,12:56:57.213,99.0400,52
46618913700392,12:56:58.913,99.0400,11
46619834279315,12:56:59.834,99.0400,100
46619834304509,12:56:59.834,99.0400,51
46620011903743,12:57:00.011,99.0300,100
46620011903743,12:57:00.011,99.0300,51
46620011930012,12:57:00.011,99.0300,49
46620012356293,12:57:00.012,99.0200,2
46620012356293,12:57:00.012,99.0200,98
46620012441611,12:57:00.012,99.0200,2
46620468733724,12:57:00.468,99.0100,2
46624979548296,12:57:04.979,99.0300,100
46624979548296,12:57:04.979,99.0300,100
46625004889520,12:57:05.004,99.0400,51
46658226874366,12:57:38.226,99.0500,100
46658232133643,12:57:38.232,99.0500,200
46661285462813,12:57:41.285,99.0300,100
46661285462813,12:57:41.285,99.0300,30
46687866779671,12:58:07.866,99.0300,70
46687866779671,12:58:07.866,99.0300,9
46687872972137,12:58:07.872,99.0200,100
46690483085677,12:58:10.483,99.0200,100
46690494875140,12:58:10.494,99.0200,200
46690494900410,12:58:10.494,99.0200,51
46693064633060,12:58:13.064,98.9900,2
46704120355700,12:58:24.120,98.9800,51
46704283363570,12:58:24.283,98.9700,1
46704283363570,12:58:24.283,98.9700,1
46704283363570,12:58:24.283,98.9700,98
46704283390583,12:58:24.283,98.9700,2
46705596548382,12:58:25.596,98.9600,2
46705596548382,12:58:25.596,98.9500,2
46705596548382,12:58:25.596,98.9500,96
46740305590640,12:59:00.305,99.0200,5
46743561587445,12:59:03.561,99.0200,81
46743561601480,12:59:03.561,99.0200,19
46743940832912,12:59:03.940,99.0300,100
46747744494578,12:59:07.744,99.0100,16
46747744533583,12:59:07.744,99.0100,68
46747744555189,12:59:07.744,99.0100,16
46747744958738,12:59:07.744,99.0000,16
46747745588351,12:59:07.745,99.0000,16
46747745643580,12:59:07.745,99.0000,16
46747775899450,12:59:07.775,99.0050,1
46747775899450,12:59:07.775,99.0100,200
46747775899450,12:59:07.775,99.0100,99
46747775925390,12:59:07.775,99.0100,1
46760020829049,12:59:20.020,99.0200,100
46795036432031,12:59:55.036,99.0400,20
46800078542299,13:00:00.078,99.0400,41
46800078555727,13:00:00.078,99.0400,39
46800078555727,13:00:00.078,99.0300,60
46800078590896,13:00:00.078,99.0300,40
46800080120233,13:00:00.080,99.0200,5
46800080120233,13:00:00.080,99.0100,35
46800080809853,13:00:00.080,99.0100,20
46812599057081,13:00:12.599,99.0000,100
46812599057081,13:00:12.599,99.0000,100
46812599087443,13:00:12.599,99.0000,100
46812599087443,13:00:12.599,99.0000,9
46812604966369,13:00:12.604,98.9900,15
46812637520821,13:00:12.637,98.9900,85
46812887414366,13:00:12.887,99.0000,100
46859154460859,13:00:59.154,99.0000,77
46859154509592,13:00:59.154,99.0000,23
46862139053441,13:01:02.139,99.0200,70
46895835092707,13:01:35.835,98.9900,99
46895835100326,13:01:35.835,98.9900,1
46896657712645,13:01:36.657,98.9800,100
46896667228052,13:01:36.667,98.9700,100
46907898948989,13:01:47.898,98.9600,100
46907898975550,13:01:47.898,98.9600,100
46914360094769,13:01:54.360,98.9400,2
46914360094769,13:01:54.360,98.9400,8
46928213047074,13:02:08.213,98.9600,100
46928213047074,13:02:08.213,98.9600,61
46928213079472,13:02:08.213,98.9600,39
46928213079472,13:02:08.213,98.9600,100
46949445587858,13:02:29.445,98.9300,10
46977586639180,13:02:57.586,98.9500,4
46984197750409,13:03:04.197,98.9800,57
46984197776718,13:03:04.197,98.9800,43
46984230830549,13:03:04.230,98.9800,26
46986357890425,13:03:06.357,99.0000,100
46990436057308,13:03:10.436,98.9800,100
46991436433004,13:03:11.436,98.9700,100
47008868270225,13:03:28.868,98.9800,100
47008868270225,13:03:28.868,98.9800,100
47031463350653,13:03:51.463,98.9700,10
47046435242529,13:04:06.435,98.9600,100
47046435242529,13:04:06.435,98.9600,10
47046435242529,13:04:06.435,98.9600,100
47049528536361,13:04:09.528,98.9550,1
47049528536361,13:04:09.528,98.9600,99
47049528562691,13:04:09.528,98.9600,1
47049528929229,13:04:09.528,98.9600,1
47086560709191,13:04:46.560,98.9500,100
47105846362833,13:05:05.846,98.9100,100
47106524727937,13:05:06.524,98.8700,2
47106524727937,13:05:06.524,98.8700,3
47106524727937,13:05:06.524,98.8700,3
47116228233176,13:05:16.228,98.8900,100
47116228233176,13:05:16.228,98.8900,2
47116232868009,13:05:16.232,98.8900,98
47116361434127,13:05:16.361,98.8900,100
47126864330089,13:05:26.864,98.9100,100
47126864330089,13:05:26.864,98.9100,62
47126867058696,13:05:26.867,98.9200,100
47126867058696,13:05:26.867,98.9200,100
47126867058696,13:05:26.867,98.9300,100
47126867086538,13:05:26.867,98.9300,100
47126867086538,13:05:26.867,98.9300,100
47130933077155,13:05:30.933,98.9100,30
47130933119965,13:05:30.933,98.9100,70
47135769803476,13:05:35.769,98.9000,100
47135769803476,13:05:35.769,98.9000,100
47137904462491,13:05:37.904,98.8900,5
47142445849617,13:05:42.445,98.9100,100
47179316710830,13:06:19.316,98.9200,5
47182416958578,13:06:22.416,98.9500,20
47182416994911,13:06:22.416,98.9600,5
47187946412136,13:06:27.946,98.9400,5
47187946416528,13:06:27.946,98.9400,95
47191040665351,13:06:31.040,98.9300,100
47191040665351,13:06:31.040,98.9300,6
47210855924353,13:06:50.855,98.9400,100
47210855954812,13:06:50.855,98.9400,100
47225655280226,13:07:05.655,98.9500,100
47225655280226,13:07:05.655,98.9500,100
47225695446676,13:07:05.695,98.9600,100
47252795531250,13:07:32.795,98.9600,10
