timestamp,time,price,volume
34200631710714,09:30:00.631,0.0000,0
34381129828590,09:33:01.129,98.2600,100
34381130351305,09:33:01.130,98.2600,26
34381131133208,09:33:01.131,98.2100,100
34381131304184,09:33:01.131,98.2100,100
34709020623703,09:38:29.020,97.8900,100
34781429245089,09:39:41.429,97.9100,5
34861012580829,09:41:01.012,98.3100,7
35070295488119,09:44:30.295,98.1300,100
35070295612530,09:44:30.295,98.1300,100
35079242003698,09:44:39.242,97.9500,1
35133020166303,09:45:33.020,98.2100,100
35246821335243,09:47:26.821,98.2900,8
35403338013935,09:50:03.338,98.0700,100
35406239746207,09:50:06.239,98.0700,22
35491714645190,09:51:31.714,98.0400,1
35563011472115,09:52:43.011,98.0200,60
35563129425932,09:52:43.129,98.0800,100
35563129460678,09:52:43.129,98.0800,100
35577266082094,09:52:57.266,98.0600,9
35658945626237,09:54:18.945,98.1200,10
35664741579327,09:54:24.741,98.1800,1
35940041359783,09:59:00.041,98.0000,100
35940042069888,09:59:00.042,98.0200,200
35949021176255,09:59:09.021,98.0400,80
35949021611762,09:59:09.021,98.0400,20
36028893042320,10:00:28.893,98.0400,7
36028893042320,10:00:28.893,98.0800,7
36028893042320,10:00:28.893,98.0800,86
36028893646424,10:00:28.893,98.0800,14
36028894340004,10:00:28.894,98.1100,100
36032106746621,10:00:32.106,98.1700,100
36032106747224,10:00:32.106,98.1500,1
36112024521835,10:01:52.024,98.0600,1
36265033156001,10:04:25.033,97.9500,1
36297299657350,10:04:57.299,98.0200,4
36308082082188,10:05:08.082,97.9450,1
36308082082188,10:05:08.082,97.9450,1
36308082082188,10:05:08.082,97.9450,1
36308082082188,10:05:08.082,97.9450,1
36308082082188,10:05:08.082,97.9450,1
36361246203784,10:06:01.246,97.9600,1
36414121364742,10:06:54.121,97.9150,1
36442995642734,10:07:22.995,97.9000,8
36442995642734,10:07:22.995,97.8300,100
36520025123116,10:08:40.025,97.7400,7
36520025268372,10:08:40.025,97.7400,1
36520025268372,10:08:40.025,97.7500,6
36520025296858,10:08:40.025,97.7500,1
36520025856239,10:08:40.025,97.7900,100
36520026570121,10:08:40.026,97.7900,100
36693017360366,10:11:33.017,97.8100,1
36693017755710,10:11:33.017,97.8100,8
36693017773748,10:11:33.017,97.8100,4
36693017773748,10:11:33.017,97.8200,4
36693017792459,10:11:33.017,97.8200,3
36693017792459,10:11:33.017,97.8200,1
36703074730799,10:11:43.074,97.7800,10
36774003760872,10:12:54.003,97.7900,100
36774004864004,10:12:54.004,97.7800,67
36774005020959,10:12:54.005,97.7800,33
36774007096720,10:12:54.007,97.7300,100
36814322959497,10:13:34.322,97.6500,6
36901325016974,10:15:01.325,97.6500,5
36930504075103,10:15:30.504,97.6300,1
36930504588697,10:15:30.504,97.6300,34
37123026598971,10:18:43.026,97.6300,1
37173686599986,10:19:33.686,97.6900,2
37173686602008,10:19:33.686,97.6900,2
37177224263551,10:19:37.224,97.6900,8
37287202195953,10:21:27.202,97.7500,1
37355048622989,10:22:35.048,97.8100,100
37355048647470,10:22:35.048,97.8100,7
37355048647470,10:22:35.048,97.8100,1
37488087213493,10:24:48.087,97.7500,39
37495467701160,10:24:55.467,97.7000,100
37591020285392,10:26:31.020,97.7500,35
37711033671096,10:28:31.033,97.8000,35
37737106082248,10:28:57.106,97.8100,1
37747019103454,10:29:07.019,97.8100,1
37825030456325,10:30:25.030,97.8100,1
37903024367795,10:31:43.024,97.8400,1
37929369741386,10:32:09.369,97.8800,5
37933078724105,10:32:13.078,97.9100,5
37933079647599,10:32:13.079,97.9200,1
37933079815312,10:32:13.079,97.9200,2
37934129055797,10:32:14.129,97.9200,3
37981012462950,10:33:01.012,97.9800,1
38059025016684,10:34:19.025,97.9900,1
38075377769245,10:34:35.377,98.0400,5
38137015464127,10:35:37.015,98.0200,1
38215010260349,10:36:55.010,98.0300,1
38293034717529,10:38:13.034,98.0300,1
38319477944095,10:38:39.477,98.1000,2
38319479084362,10:38:39.479,98.1000,10
38323964611893,10:38:43.964,98.0400,46
38323964974895,10:38:43.964,98.0300,7
38323965014439,10:38:43.965,98.0300,37
38373389862964,10:39:33.389,98.0900,1
38377390402416,10:39:37.390,98.0900,1
38468154673543,10:41:08.154,97.9900,1
38493781589095,10:41:33.781,98.0900,2
38592602458477,10:43:12.602,98.1400,10
38592603130885,10:43:12.603,98.1500,2
38828376081823,10:47:08.376,98.1100,1
38828376081823,10:47:08.376,98.1100,1
38828376643761,10:47:08.376,98.1200,10
38828376807218,10:47:08.376,98.1100,5
38828378121574,10:47:08.378,98.1100,5
38918015223689,10:48:38.015,98.1700,100
38918015223689,10:48:38.015,98.1700,3
38918015809830,10:48:38.015,98.1800,5
39151015012535,10:52:31.015,98.1400,1
39180413284493,10:53:00.413,98.1300,1
39307117841912,10:55:07.117,98.2200,1
39307117841912,10:55:07.117,98.2200,99
39307117872403,10:55:07.117,98.2200,1
39307117872403,10:55:07.117,98.2200,53
39307117882125,10:55:07.117,98.2200,13
39381089972489,10:56:21.089,98.1700,1
39466971260749,10:57:46.971,98.1700,99
39466974948046,10:57:46.974,98.1600,100
39541016438015,10:59:01.016,98.2100,10
39541016524348,10:59:01.016,98.2100,10
39556616653556,10:59:16.616,98.2100,10
39601236330385,11:00:01.236,98.2500,100
39601365298755,11:00:01.365,98.2900,40
39663401166352,11:01:03.401,98.3300,3
39790964963857,11:03:10.964,98.3900,100
39801065786618,11:03:21.065,98.4100,5
39859646132721,11:04:19.646,98.4100,1
39859646132721,11:04:19.646,98.4100,1
39859646132721,11:04:19.646,98.4100,1
39859646132721,11:04:19.646,98.4600,7
39915617854084,11:05:15.617,98.4700,5
39915617854084,11:05:15.617,98.4700,5
39958258500368,11:05:58.258,98.4000,1
39958258500368,11:05:58.258,98.3800,99
39958261102920,11:05:58.261,98.3800,1
40042805626277,11:07:22.805,98.3800,1
40042805626277,11:07:22.805,98.3800,1
40050414097150,11:07:30.414,98.3800,5
40050416914820,11:07:30.416,98.3200,4
40050416929069,11:07:30.416,98.3200,5
40193787822735,11:09:53.787,98.3600,1
40200296717796,11:10:00.296,98.3100,4
40244335321956,11:10:44.335,98.3200,1
40317110042261,11:11:57.110,98.2600,1
40354614523474,11:12:34.614,98.3100,1
40398886692685,11:13:18.886,98.2000,1
40398886718087,11:13:18.886,98.2000,99
40398886719436,11:13:18.886,98.2000,6
40440280528099,11:14:00.280,98.1300,4
40440280552384,11:14:00.280,98.1300,96
40440280553887,11:14:00.280,98.1300,96
40578150826028,11:16:18.150,98.1500,1
40633015735573,11:17:13.015,98.0500,1
40698982533849,11:18:18.982,98.0650,1
40711015495491,11:18:31.015,98.0800,10
40711015501707,11:18:31.015,98.0900,100
40712015723442,11:18:32.015,98.1400,1
40789022319754,11:19:49.022,98.1600,1
40867011671881,11:21:07.011,98.1600,1
40909523504846,11:21:49.523,98.1100,100
40909526178929,11:21:49.526,98.0500,92
40909526335757,11:21:49.526,98.0500,8
40909527140813,11:21:49.527,98.0500,19
40909530775843,11:21:49.530,98.0500,1
41076585240095,11:24:36.585,98.0200,1
41076585240095,11:24:36.585,97.9900,98
41076585714383,11:24:36.585,97.9900,2
41372290441373,11:29:32.290,98.1000,1
41372291080791,11:29:32.291,98.1000,5
41372291675273,11:29:32.291,98.1200,5
41372292219074,11:29:32.292,98.1200,5
41377324457281,11:29:37.324,98.1300,100
41377324585228,11:29:37.324,98.1300,100
41392322985499,11:29:52.322,98.1600,1
41423402026518,11:30:23.402,98.1700,1
41530640336183,11:32:10.640,98.2500,5
41530640336183,11:32:10.640,98.2500,19
41530640398577,11:32:10.640,98.2700,2
41530640398577,11:32:10.640,98.2700,2
41594024751632,11:33:14.024,98.3000,1
41594024751632,11:33:14.024,98.3000,1
41599929428829,11:33:19.929,98.2300,24
41763023135945,11:36:03.023,98.3000,1
41763023160953,11:36:03.023,98.3000,99
41763220222050,11:36:03.220,98.3100,2
41836196774378,11:37:16.196,98.2500,100
41948704415317,11:39:08.704,98.2000,1
41948704872159,11:39:08.704,98.2000,1
41970914477699,11:39:30.914,98.2000,1
41970914930654,11:39:30.914,98.2000,1
41970915406309,11:39:30.915,98.2000,1
42001794551006,11:40:01.794,98.1900,1
42372230460574,11:46:12.230,98.2600,100
42372230487386,11:46:12.230,98.2600,20
42533387233273,11:48:53.387,98.2900,16
42533387233273,11:48:53.387,98.2900,1
42533389977976,11:48:53.389,98.3100,10
42533443791030,11:48:53.443,98.3300,8
42533443791030,11:48:53.443,98.3400,89
42533443817902,11:48:53.443,98.3400,11
42556387166478,11:49:16.387,98.4100,1
42569610087471,11:49:29.610,98.4200,10
42569610115211,11:49:29.610,98.4200,90
42573388238954,11:49:33.388,98.5100,1
42583390536963,11:49:43.390,98.5100,1
42618192242330,11:50:18.192,98.5000,2
42676076143405,11:51:16.076,98.4550,100
42767517822283,11:52:47.517,98.4700,2
43016528176856,11:56:56.528,98.4600,1
43089053060902,11:58:09.053,98.4800,1
43149213758981,11:59:09.213,98.4800,1
43151346301968,11:59:11.346,98.4800,2
43162211167472,11:59:22.211,98.4800,1
43167018212940,11:59:27.018,98.4900,1
43172212106525,11:59:32.212,98.4900,1
43176211850568,11:59:36.211,98.4900,1
43189213004871,11:59:49.213,98.4900,1
43285012434627,12:01:25.012,98.4100,1
43285012435098,12:01:25.012,98.4100,1
43285012460728,12:01:25.012,98.4100,98
43285012460728,12:01:25.012,98.4100,100
43415725799887,12:03:35.725,98.4500,100
43415726257596,12:03:35.726,98.4500,8
43415726257596,12:03:35.726,98.4600,92
43415726282872,12:03:35.726,98.4600,8
43441463570993,12:04:01.463,98.4200,99
43466253124139,12:04:26.253,98.4500,2
43577386103765,12:06:17.386,98.3900,47
43577386137454,12:06:17.386,98.3900,53
43577386137454,12:06:17.386,98.3900,100
43588519004264,12:06:28.519,98.3700,1
43588525196762,12:06:28.525,98.3400,1
43872367604897,12:11:12.367,98.4000,100
43872367604897,12:11:12.367,98.4000,10
43872367605633,12:11:12.367,98.4000,100
43872369092693,12:11:12.369,98.4000,10
43872374206017,12:11:12.374,98.4200,100
43872537556515,12:11:12.537,98.4300,100
43872568032218,12:11:12.568,98.4400,1
43874479268510,12:11:14.479,98.4100,27
43874479271621,12:11:14.479,98.4100,73
43874479271621,12:11:14.479,98.4100,100
43874479271621,12:11:14.479,98.4100,2
43901251484573,12:11:41.251,98.3600,100
43992743929868,12:13:12.743,98.3600,100
43992744454696,12:13:12.744,98.3500,10
44030146872285,12:13:50.146,98.3200,5
44030146872285,12:13:50.146,98.3200,1
44030146872285,12:13:50.146,98.3100,5
44030147000584,12:13:50.147,98.3000,10
44030147000584,12:13:50.147,98.3000,14
44054503822340,12:14:14.503,98.2900,5
44054503822340,12:14:14.503,98.2900,5
44054505124871,12:14:14.505,98.2700,1
44054505124871,12:14:14.505,98.2700,2
44141217852158,12:15:41.217,98.2400,1
44141217855815,12:15:41.217,98.2400,1
44141217885742,12:15:41.217,98.2400,18
44141217885742,12:15:41.217,98.2400,100
44143015227909,12:15:43.015,98.2600,1
44207936287484,12:16:47.936,98.3100,2
44223173112088,12:17:03.173,98.3100,18
44223173112088,12:17:03.173,98.3100,82
44223173143930,12:17:03.173,98.3100,118
44223173143930,12:17:03.173,98.3100,7
44224141337927,12:17:04.141,98.3200,100
44230015007405,12:17:10.015,98.3000,100
44230015007405,12:17:10.015,98.3000,3
44277682678837,12:17:57.682,98.2500,1
44278681515441,12:17:58.681,98.2400,100
44290557100211,12:18:10.557,98.2300,1
44290557100211,12:18:10.557,98.2300,9
44320350019139,12:18:40.350,98.2200,7
44320350019139,12:18:40.350,98.2200,5
44320350019139,12:18:40.350,98.2200,4
44320350047449,12:18:40.350,98.2200,1
44320350129757,12:18:40.350,98.2100,10
44320350598911,12:18:40.350,98.2000,10
44320350598911,12:18:40.350,98.2000,3
44321276299669,12:18:41.276,98.1900,5
44321276299669,12:18:41.276,98.1900,15
44321276353950,12:18:41.276,98.1800,1
44321276353950,12:18:41.276,98.1800,10
44321276916611,12:18:41.276,98.1700,10
44321277171570,12:18:41.277,98.1600,10
44326573568778,12:18:46.573,98.2000,39
44521482433361,12:22:01.482,98.2300,5
44618012356515,12:23:38.012,98.2500,10
44618012356515,12:23:38.012,98.2500,100
44618012356515,12:23:38.012,98.2500,100
44618534272161,12:23:38.534,98.2500,100
44640809633224,12:24:00.809,98.2300,43
44640809663674,12:24:00.809,98.2300,57
44646294769249,12:24:06.294,98.2700,3
44661297902959,12:24:21.297,98.2700,3
44673297305720,12:24:33.297,98.2700,3
44787159043126,12:26:27.159,98.2200,1
44787159043126,12:26:27.159,98.1900,34
44948068972229,12:29:08.068,98.2200,1
45036496789682,12:30:36.496,98.2100,1
45036496789682,12:30:36.496,98.2000,3
45036497118867,12:30:36.497,98.1900,3
45183195626126,12:33:03.195,98.2000,1
45183195626126,12:33:03.195,98.2000,3
45215726282721,12:33:35.726,98.1800,1
45316015219827,12:35:16.015,98.1900,14
45316015219827,12:35:16.015,98.1900,100
45374429196624,12:36:14.429,98.1800,1
45374429196624,12:36:14.429,98.1800,1
45481947938541,12:38:01.947,98.2100,100
45481947938541,12:38:01.947,98.2000,1
45498792231888,12:38:18.792,98.2000,100
45585040608315,12:39:45.040,98.2000,1
45585040663169,12:39:45.040,98.2000,1
45631479732546,12:40:31.479,98.2000,4
45631479732546,12:40:31.479,98.2000,96
45663046889166,12:41:03.046,98.2000,4
45663047220408,12:41:03.047,98.2100,100
45663049540080,12:41:03.049,98.2100,8
45663049540080,12:41:03.049,98.2100,2
45663050015722,12:41:03.050,98.2100,6
45663222952449,12:41:03.222,98.1900,100
45680657014445,12:41:20.657,98.1700,100
45708560221778,12:41:48.560,98.1600,1
45710906727071,12:41:50.906,98.1100,1
45710906727071,12:41:50.906,98.1100,4
45710925699264,12:41:50.925,98.1000,2
45710925699264,12:41:50.925,98.1000,92
45728204387989,12:42:08.204,98.0800,2
45728204387989,12:42:08.204,98.0800,8
45728204387989,12:42:08.204,98.0800,10
45729229280110,12:42:09.229,98.0600,1
45729229280110,12:42:09.229,98.0600,2
45763372284859,12:42:43.372,98.0500,10
45763372284859,12:42:43.372,98.0500,3
45763372284859,12:42:43.372,98.0500,7
45781013892695,12:43:01.013,98.0600,1
45859034028143,12:44:19.034,98.0600,1
45937028040622,12:45:37.028,98.0800,1
45970198175650,12:46:10.198,98.0400,2
45970198760329,12:46:10.198,98.0300,20
45970201895621,12:46:10.201,98.0200,2
45970201895621,12:46:10.201,98.0200,8
45970201895621,12:46:10.201,98.0200,10
45970201895621,12:46:10.201,98.0100,4
46023013718452,12:47:03.013,98.0600,1
46027060791735,12:47:07.060,98.0600,99
46112092319516,12:48:32.092,98.0900,1
46260342561971,12:51:00.342,98.1200,100
46260342587931,12:51:00.342,98.1200,100
46260342587931,12:51:00.342,98.1200,1
46260342591601,12:51:00.342,98.1200,100
46260342591601,12:51:00.342,98.1200,1
46260342593187,12:51:00.342,98.1200,7
46260342956012,12:51:00.342,98.1200,20
46261028619601,12:51:01.028,98.1300,100
46261029009782,12:51:01.029,98.1400,100
46261029342404,12:51:01.029,98.1400,20
46261029348803,12:51:01.029,98.1400,5
46262029068918,12:51:02.029,98.1400,1
46262029093312,12:51:02.029,98.1400,24
46262029093312,12:51:02.029,98.1400,10
46262030960797,12:51:02.030,98.1500,3
46262134058645,12:51:02.134,98.1400,3
46262135576522,12:51:02.135,98.1300,100
46262535105497,12:51:02.535,98.1500,97
46262535105497,12:51:02.535,98.1500,3
46262535130215,12:51:02.535,98.1500,97
46262535131842,12:51:02.535,98.1500,97
46306501853150,12:51:46.501,98.1300,100
46306501853150,12:51:46.501,98.1300,2
46443032154312,12:54:03.032,98.0800,100
46443032154312,12:54:03.032,98.0800,100
46454766717502,12:54:14.766,98.0800,2
46456839602664,12:54:16.839,98.0400,100
46523913541629,12:55:23.913,98.0400,100
46595006589166,12:56:35.006,98.0400,5
46759288651043,12:59:19.288,98.0800,2
46773289529278,12:59:33.289,98.0800,2
46781290528493,12:59:41.290,98.0800,2
46821211358529,13:00:21.211,98.0400,1
46951019636772,13:02:31.019,98.0400,1
47030036346806,13:03:50.036,98.0500,1
47070253945760,13:04:30.253,98.0000,5
47070253945760,13:04:30.253,98.0000,100
47070253945760,13:04:30.253,98.0000,4
47070253945760,13:04:30.253,98.0000,15
47079228472744,13:04:39.228,98.0000,2
47100768108336,13:05:00.768,98.0000,3
47252696413700,13:07:32.696,98.0300,1
47265341052127,13:07:45.341,98.0300,1
47600872083823,13:13:20.872,98.0400,1
47653055753278,13:14:13.055,98.0400,1
47653057282694,13:14:13.057,98.0200,100
47653057282694,13:14:13.057,98.0200,100
47653057310577,13:14:13.057,98.0200,2
47653057310577,13:14:13.057,98.0200,11
47696267000379,13:14:56.267,97.9900,1
47696267000379,13:14:56.267,97.9900,100
47696267000379,13:14:56.267,97.9900,65
47696375739161,13:14:56.375,97.9800,20
47696375802146,13:14:56.375,97.9700,5
47696375802146,13:14:56.375,97.9700,15
47725002045833,13:15:25.002,97.9600,1
47725002045833,13:15:25.002,97.9600,19
47725002142271,13:15:25.002,97.9500,5
47725963221269,13:15:25.963,97.9300,20
47725963319167,13:15:25.963,97.9200,1
47725963319167,13:15:25.963,97.9200,4
47725963319167,13:15:25.963,97.9200,15
47729021430535,13:15:29.021,97.9000,1
47742266723186,13:15:42.266,97.9200,1
47742266723186,13:15:42.266,97.9200,1
47742266723186,13:15:42.266,97.8800,1
47742266723186,13:15:42.266,97.8800,19
47742267510542,13:15:42.267,97.8700,20
47742269209268,13:15:42.269,97.8600,10
47742270784899,13:15:42.270,97.8400,20
47742270784899,13:15:42.270,97.8300,20
47742271749623,13:15:42.271,97.8200,20
47742272381545,13:15:42.272,97.8100,5
47743267550992,13:15:43.267,97.7500,1
47820996792663,13:17:00.996,97.8600,5
47820997478292,13:17:00.997,97.8700,100
47821061012970,13:17:01.061,97.8700,100
47881519127207,13:18:01.519,97.8700,7
47881519151170,13:18:01.519,97.8700,93
47881519151170,13:18:01.519,97.8700,200
47881519153380,13:18:01.519,97.8700,100
47881519153380,13:18:01.519,97.8700,10
47881519153380,13:18:01.519,97.8700,100
47881721185694,13:18:01.721,97.9100,100
47881721217484,13:18:01.721,97.9100,100
47882288230266,13:18:02.288,97.9800,100
47977309474646,13:19:37.309,97.9500,1
47985808858941,13:19:45.808,97.9200,1
48001449256998,13:20:01.449,97.9400,8
48001449256998,13:20:01.449,97.9500,92
48001449282601,13:20:01.449,97.9500,8
48107505398634,13:21:47.505,97.9700,5
48178752586755,13:22:58.752,97.9800,5
48237046469002,13:23:57.046,98.0000,100
48237046620136,13:23:57.046,98.0000,50
48243958249517,13:24:03.958,97.9600,100
48247298439725,13:24:07.298,97.9600,10
48265096914205,13:24:25.096,97.9700,5
48265096914205,13:24:25.096,98.0100,1
48265098050281,13:24:25.098,98.0200,6
48276297347249,13:24:36.297,98.0200,12
48281498807298,13:24:41.498,98.0200,12
48300097267654,13:25:00.097,98.0100,1
48300297415470,13:25:00.297,98.0100,12
48301535398407,13:25:01.535,97.9800,1
48635283142105,13:30:35.283,98.0300,100
48635283142105,13:30:35.283,98.0300,2
48635283147186,13:30:35.283,98.0300,1
48635283529909,13:30:35.283,98.0300,39
48635283555041,13:30:35.283,98.0300,60
48635283565724,13:30:35.283,98.0300,5
48635283593486,13:30:35.283,98.0300,95
48678318110047,13:31:18.318,98.0400,4
48678318560221,13:31:18.318,98.0400,96
48692594521912,13:31:32.594,97.9900,40
48703021950322,13:31:43.021,97.9700,100
48838242444671,13:33:58.242,97.9700,90
48942911030018,13:35:42.911,97.9450,100
49188370345551,13:39:48.370,97.9400,28
49188370374520,13:39:48.370,97.9400,72
49188370374520,13:39:48.370,97.9400,3
49188370374520,13:39:48.370,97.9400,32
49188370397341,13:39:48.370,97.9400,2
49201623327151,13:40:01.623,97.9100,3
49201623351872,13:40:01.623,97.9100,97
49220270671703,13:40:20.270,97.9100,24
49220270973814,13:40:20.270,97.9200,2
49220270973814,13:40:20.270,97.9200,22
49220270997453,13:40:20.270,97.9200,9
49224331029781,13:40:24.331,97.9300,100
49224331072266,13:40:24.331,97.9300,5
49224331121439,13:40:24.331,97.9300,95
49224331155595,13:40:24.331,97.9400,5
49299699449651,13:41:39.699,97.9500,1
49299699536866,13:41:39.699,97.9200,100
49501291394549,13:45:01.291,97.8700,72
49501291404265,13:45:01.291,97.8700,28
49501294113961,13:45:01.294,97.8600,1
49501589909342,13:45:01.589,97.8500,5
49504743584421,13:45:04.743,97.8600,3
49504743584421,13:45:04.743,97.8600,8
49518155923148,13:45:18.155,97.8400,1
49518155989402,13:45:18.155,97.8300,2
49518155989402,13:45:18.155,97.8300,98
49518156024114,13:45:18.156,97.8300,18
49561923257599,13:46:01.923,97.8500,2
49665700588587,13:47:45.700,97.8100,1
49665700614198,13:47:45.700,97.8100,19
49726699016136,13:48:46.699,97.7900,1
49726699041705,13:48:46.699,97.7900,6
49726699041705,13:48:46.699,97.7900,5
49726699041705,13:48:46.699,97.7900,5
49726701041282,13:48:46.701,97.8200,100
49726701056047,13:48:46.701,97.7900,7
49726701056047,13:48:46.701,97.7900,7
49726702173287,13:48:46.702,97.7900,25
49733312382880,13:48:53.312,97.7800,5
49761337942586,13:49:21.337,97.8000,1
49787697456550,13:49:47.697,97.7700,5
49787697456550,13:49:47.697,97.7700,15
49787697456550,13:49:47.697,97.7700,100
49787698608758,13:49:47.698,97.7700,25
49787699368912,13:49:47.699,97.7800,157
49787815038392,13:49:47.815,97.8000,2
49984167606909,13:53:04.167,97.8200,5
49984168143889,13:53:04.168,97.8300,1
49984168143889,13:53:04.168,97.8300,100
49984270776270,13:53:04.270,97.8400,4
49984270800624,13:53:04.270,97.8400,96
49984271393616,13:53:04.271,97.8400,105
49984271820895,13:53:04.271,97.8400,95
49984271820895,13:53:04.271,97.8400,10
49984272042013,13:53:04.272,97.8400,90
49986136097128,13:53:06.136,97.8200,100
50092698745178,13:54:52.698,97.8100,1
50132788718653,13:55:32.788,97.7950,1
50155000717592,13:55:55.000,97.7900,1
50156279794699,13:55:56.279,97.8000,2
50204621905049,13:56:44.621,97.8300,6
50204621905049,13:56:44.621,97.8300,1
50228014512374,13:57:08.014,97.8600,100
50228015075498,13:57:08.015,97.8600,100
50228015075498,13:57:08.015,97.8600,100
50231948351053,13:57:11.948,97.8600,100
50262020336021,13:57:42.020,97.8600,1
50276698015499,13:57:56.698,97.8400,1
50276698026554,13:57:56.698,97.8600,5
50285549430836,13:58:05.549,97.8700,5
50308900196107,13:58:28.900,97.9000,1
50336700649293,13:58:56.700,97.8600,100
50343904896079,13:59:03.904,97.8400,100
50343904896079,13:59:03.904,97.8400,100
50343905334180,13:59:03.905,97.8300,31
50343905357364,13:59:03.905,97.8300,13
50343906510153,13:59:03.906,97.8300,76
50343913491184,13:59:03.913,97.8300,59
50344270518466,13:59:04.270,97.8300,38
50345703536446,13:59:05.703,97.8000,2
50381413678889,13:59:41.413,97.8400,2
50383236213042,13:59:43.236,97.7900,1
50402692664095,14:00:02.692,97.7600,5
50402692664095,14:00:02.692,97.7600,2
50402692664095,14:00:02.692,97.7600,3
50404888790643,14:00:04.888,97.7400,10
50404889131680,14:00:04.889,97.7300,1
50405723404762,14:00:05.723,97.7900,1
50405723830353,14:00:05.723,97.8500,100
50406728074693,14:00:06.728,97.8500,5
50406728074693,14:00:06.728,97.8500,95
50406728327787,14:00:06.728,97.8500,5
50406984634357,14:00:06.984,97.8500,100
50408996576196,14:00:08.996,97.8700,2
50408999351179,14:00:08.999,97.8700,10
50409001336747,14:00:09.001,97.9200,100
50411256465930,14:00:11.256,97.9700,200
50413019842984,14:00:13.019,97.9700,100
50458699978298,14:00:58.699,98.0200,1
50462018126682,14:01:02.018,98.0800,1
50462018165430,14:01:02.018,98.0800,23
50462018166796,14:01:02.018,98.0800,57
50462018211460,14:01:02.018,98.0800,1
50462018373978,14:01:02.018,98.0800,24
50462018373978,14:01:02.018,98.0800,34
50462019183058,14:01:02.019,98.0800,2
50465094531435,14:01:05.094,98.1200,20
50465094531435,14:01:05.094,98.1400,80
50465094612105,14:01:05.094,98.1400,20
50537447156399,14:02:17.447,98.0600,100
50537702323686,14:02:17.702,98.0700,2
50537838260239,14:02:17.838,98.0500,10
50537839736525,14:02:17.839,98.0500,10
50580701457014,14:03:00.701,98.0950,1
50580701457014,14:03:00.701,98.1000,2
50617016418696,14:03:37.016,98.1000,1
50641014894081,14:04:01.014,98.1500,100
50641014934731,14:04:01.014,98.1500,14
50658330032645,14:04:18.330,98.2100,100
50695022584532,14:04:55.022,98.2100,4
50695022584532,14:04:55.022,98.2100,100
50695022875854,14:04:55.022,98.2100,100
50701376885738,14:05:01.376,98.2100,2
50702699157221,14:05:02.699,98.1900,1
50773035593988,14:06:13.035,98.1900,1
50851206057182,14:07:31.206,98.1900,1
50861888107877,14:07:41.888,98.1800,1
50861890947402,14:07:41.890,98.1200,4
50878896236823,14:07:58.896,98.1200,77
50878896236823,14:07:58.896,98.1200,100
50889927113310,14:08:09.927,98.0700,1
50889927113310,14:08:09.927,98.0700,1
50929011989031,14:08:49.011,98.0700,1
50946706370756,14:09:06.706,98.0700,2
50947848381131,14:09:07.848,98.0700,4
50947848381131,14:09:07.848,98.1100,96
50947848406304,14:09:07.848,98.1100,4
50982881044094,14:09:42.881,98.0300,1
50982881639008,14:09:42.881,98.0200,100
50998085691415,14:09:58.085,97.9100,1
51011391659558,14:10:11.391,97.9800,2
51047940498326,14:10:47.940,97.9100,1
51047940500183,14:10:47.940,97.9100,1
51068699706531,14:11:08.699,97.9800,1
51085017178524,14:11:25.017,97.9750,1
51085127319516,14:11:25.127,98.0500,100
51118259966686,14:11:58.259,98.0900,2
51120271169758,14:12:00.271,98.0800,1
51121752874854,14:12:01.752,98.0650,100
51177028643536,14:12:57.028,98.0900,2
51178012649742,14:12:58.012,98.0900,1
51180180907184,14:13:00.180,98.0900,5
51180180907184,14:13:00.180,98.1200,95
51180181003165,14:13:00.181,98.1200,5
51212679756209,14:13:32.679,98.1100,100
51212865223055,14:13:32.865,98.0700,3
51212865223055,14:13:32.865,98.0700,97
51212865315706,14:13:32.865,98.0700,3
51212865315706,14:13:32.865,98.0700,11
51212871351719,14:13:32.871,98.1000,21
51242105198592,14:14:02.105,98.1200,10
51242105206121,14:14:02.105,98.1200,41
51242105234852,14:14:02.105,98.1200,49
51252706136101,14:14:12.706,98.1200,1
51275820080901,14:14:35.820,98.1500,200
51275820173629,14:14:35.820,98.1500,100
51275820173629,14:14:35.820,98.1700,100
51275820200968,14:14:35.820,98.1700,100
51275820807848,14:14:35.820,98.1800,5
51275824556181,14:14:35.824,98.1800,95
51281283971372,14:14:41.283,98.1400,100
51300208147490,14:15:00.208,98.1400,11
51300209127753,14:15:00.209,98.1300,3
51300209127753,14:15:00.209,98.1300,100
51300259564556,14:15:00.259,98.1200,100
51300259564556,14:15:00.259,98.1200,20
51300259593248,14:15:00.259,98.1200,119
51300289549363,14:15:00.289,98.0900,35
51300335948487,14:15:00.335,98.1200,98
51302772450001,14:15:02.772,98.0400,1
51313700299289,14:15:13.700,98.0300,2
51373700047375,14:16:13.700,98.0400,2
51385393010508,14:16:25.393,98.0400,3
51385393010508,14:16:25.393,98.0500,2
51397011901444,14:16:37.011,98.0700,1
51429687147407,14:17:09.687,98.1300,100
51429688390473,14:17:09.688,98.1300,40
51429688390473,14:17:09.688,98.1400,100
51430433420403,14:17:10.433,98.1500,100
51430792695779,14:17:10.792,98.1400,100
51430792715880,14:17:10.792,98.1400,100
51495716295225,14:18:15.716,98.1400,2
51556700416778,14:19:16.700,98.1500,2
51557015367411,14:19:17.015,98.1700,22
51566878629201,14:19:26.878,98.1600,1
51572231128667,14:19:32.231,98.1800,3
51617710170631,14:20:17.710,98.1600,1
51633827365557,14:20:33.827,98.1600,1
51633827365557,14:20:33.827,98.1600,90
51635697709414,14:20:35.697,98.1300,100
51635697746767,14:20:35.697,98.1300,63
51635697773808,14:20:35.697,98.1300,37
51635697773808,14:20:35.697,98.1300,8
51654012337315,14:20:54.012,98.1500,1
51654694416692,14:20:54.694,98.1900,8
51654694416692,14:20:54.694,98.1900,92
51654694462108,14:20:54.694,98.1900,8
51654694743578,14:20:54.694,98.1900,100
51654694946792,14:20:54.694,98.2000,100
51691411748012,14:21:31.411,98.2000,8
51691411748012,14:21:31.411,98.2500,92
51701413029408,14:21:41.413,98.1400,1
51701413029408,14:21:41.413,98.1400,99
51739710786507,14:22:19.710,98.1900,2
51764295527622,14:22:44.295,98.2300,100
51764295530932,14:22:44.295,98.2400,100
51764296666659,14:22:44.296,98.2600,2
51787046373589,14:23:07.046,98.2100,1
51787055025309,14:23:07.055,98.1700,100
51787055447888,14:23:07.055,98.1600,100
51787055447888,14:23:07.055,98.1600,9
51787055447888,14:23:07.055,98.1600,28
51797055839408,14:23:17.055,98.1800,100
51797055839408,14:23:17.055,98.1700,100
51803636557524,14:23:23.636,98.2200,2
51803827086045,14:23:23.827,98.2700,17
51803827097605,14:23:23.827,98.2700,40
51865040815890,14:24:25.040,98.2200,1
51866295104616,14:24:26.295,98.2200,1
51866295104616,14:24:26.295,98.2600,4
51897095712951,14:24:57.095,98.2600,4
51897296264816,14:24:57.296,98.2600,1
51931482804700,14:25:31.482,98.2200,1
51943010041700,14:25:43.010,98.2200,1
51980023470123,14:26:20.023,98.1700,100
51980023470123,14:26:20.023,98.1700,11
51980128917256,14:26:20.128,98.1600,18
51980129222597,14:26:20.129,98.1600,18
52012738629162,14:26:52.738,98.1200,1
52021016478789,14:27:01.016,98.1500,1
52044752010804,14:27:24.752,98.1200,89
52044753111051,14:27:24.753,98.1100,100
52044754028163,14:27:24.754,98.1200,100
52062003039012,14:27:42.003,98.1200,1
52105705608931,14:28:25.705,98.1100,1
52155293887387,14:29:15.293,98.0700,100
52155293887387,14:29:15.293,98.0700,9
52229708077362,14:30:29.708,98.0200,2
52230291808552,14:30:30.291,98.0000,10
52230292586853,14:30:30.292,97.9800,92
52267466585810,14:31:07.466,98.0500,1
52271015811254,14:31:11.015,98.0500,1
52310514336133,14:31:50.514,98.0100,1
52310514336133,14:31:50.514,98.0100,17
52350724057642,14:32:30.724,98.0000,2
52386289405137,14:33:06.289,97.9700,6
52410120374871,14:33:30.120,97.9600,2
52414989269691,14:33:34.989,97.9800,1
52414989269691,14:33:34.989,97.9800,2
52468012800575,14:34:28.012,98.0300,2
52474648199386,14:34:34.648,97.9900,1
52490525018150,14:34:50.525,98.0200,1
52508833323073,14:35:08.833,98.0200,9
52508833323073,14:35:08.833,98.0500,7
52508833323073,14:35:08.833,98.0700,84
52509928413245,14:35:09.928,97.9900,100
52518277892236,14:35:18.277,98.0700,16
52518277892236,14:35:18.277,98.0700,84
52518278006813,14:35:18.278,98.0700,16
52518278006813,14:35:18.278,98.0700,2
52518560356779,14:35:18.560,98.0700,2
52541140335276,14:35:41.140,98.0000,52
52541140372663,14:35:41.140,98.0000,48
52541142346645,14:35:41.142,97.9800,100
52541142574964,14:35:41.142,97.9900,100
52541142574964,14:35:41.142,98.0000,150
52572335986158,14:36:12.335,97.9200,100
52572336477137,14:36:12.336,97.9200,9
52572403835826,14:36:12.403,97.9100,2
52580187333700,14:36:20.187,97.9000,1
52595291114215,14:36:35.291,97.8900,5
52617019896002,14:36:57.019,97.8900,1
52645923680895,14:37:25.923,97.9300,100
52649566162432,14:37:29.566,97.9250,100
52649671241725,14:37:29.671,97.9200,1
52727913427033,14:38:47.913,97.9500,100
52727914021736,14:38:47.914,97.9500,9
52727914605180,14:38:47.914,97.9400,100
52727915087162,14:38:47.915,97.9200,1
52728138188090,14:38:48.138,97.9400,25
52728227595280,14:38:48.227,97.9200,15
52728230217922,14:38:48.230,97.9400,100
52728231873647,14:38:48.231,97.9600,100
52728250228344,14:38:48.250,97.9600,100
52728250602399,14:38:48.250,97.9600,100
52728259037172,14:38:48.259,97.9600,100
52728262163673,14:38:48.262,97.9600,100
52755438638329,14:39:15.438,97.9700,2
52769376556983,14:39:29.376,97.8900,11
52769376585293,14:39:29.376,97.8800,1
52769376585293,14:39:29.376,97.8800,100
52773688808971,14:39:33.688,97.8700,100
52773704038692,14:39:33.704,97.8600,5
52774025151862,14:39:34.025,97.8500,1
52918310271490,14:41:58.310,97.8500,16
52918310271490,14:41:58.310,97.8300,10
52918311113902,14:41:58.311,97.8200,100
52918311843627,14:41:58.311,97.8000,1
52918312501262,14:41:58.312,97.7900,10
52918312501262,14:41:58.312,97.7900,29
52918313178780,14:41:58.313,97.7800,60
52918313178780,14:41:58.313,97.7800,19
52918313836056,14:41:58.313,97.7700,100
52918313836056,14:41:58.313,97.7700,100
52957010636466,14:42:37.010,97.8900,1
52958436979543,14:42:38.436,97.8700,100
52986933764236,14:43:06.933,97.8600,93
52986933826897,14:43:06.933,97.8600,7
53035057614500,14:43:55.057,97.8900,1
53066422801611,14:44:26.422,97.9200,81
53066422827275,14:44:26.422,97.9200,119
53066422828836,14:44:26.422,97.9200,100
53066422828836,14:44:26.422,97.9200,14
53109228916797,14:45:09.228,97.9900,5
53113020211610,14:45:13.020,97.9800,1
53135079499049,14:45:35.079,98.0200,100
53135079523287,14:45:35.079,98.0300,100
53135079547543,14:45:35.079,98.0300,18
53160512097586,14:46:00.512,98.0900,100
53189578461504,14:46:29.578,98.2000,11
53213032853749,14:46:53.032,98.2000,89
53213033622305,14:46:53.033,98.2000,100
53217005859774,14:46:57.005,98.2300,5
53217194130778,14:46:57.194,98.2100,1
53217194130778,14:46:57.194,98.2100,84
53229999609663,14:47:09.999,98.2400,5
53269011400813,14:47:49.011,98.2700,1
53269011400813,14:47:49.011,98.2700,99
53278675864885,14:47:58.675,98.2300,66
53298117863483,14:48:18.117,98.2300,15
53298117867930,14:48:18.117,98.2300,85
53298117867930,14:48:18.117,98.2100,16
53298117867930,14:48:18.117,98.2100,15
53356014605307,14:49:16.014,98.2600,1
53414815008188,14:50:14.815,98.2600,4
53414824197782,14:50:14.824,98.2900,100
53414824197782,14:50:14.824,98.2900,1
53422779517980,14:50:22.779,98.2800,99
53427165219223,14:50:27.165,98.3300,8
53465202827665,14:51:05.202,98.3500,23
53465202827665,14:51:05.202,98.3500,100
53503010090537,14:51:43.010,98.3500,100
53503010539826,14:51:43.010,98.3500,11
53503010565193,14:51:43.010,98.3500,89
53511104227911,14:51:51.104,98.3800,100
53519135117019,14:51:59.135,98.4300,1
53536206907140,14:52:16.206,98.4500,1
53536206937525,14:52:16.206,98.4600,100
53537125412487,14:52:17.125,98.4700,5
53541140032911,14:52:21.140,98.4800,100
53582012201055,14:53:02.012,98.5400,1
53652097075092,14:54:12.097,98.5200,12
53659043528389,14:54:19.043,98.5400,1
53679372198003,14:54:39.372,98.5100,100
53679372233534,14:54:39.372,98.5100,100
53691982184900,14:54:51.982,98.5100,100
53734731757122,14:55:34.731,98.5300,2
53734732243867,14:55:34.732,98.5000,30
53737009840183,14:55:37.009,98.4900,1
53761465401427,14:56:01.465,98.4700,100
53827809538629,14:57:07.809,98.4100,1
53868267148780,14:57:48.267,98.4300,100
53868267148780,14:57:48.267,98.4300,36
53868267148780,14:57:48.267,98.4300,64
53868267228165,14:57:48.267,98.4300,36
53903034295346,14:58:23.034,98.4300,1
53965738850486,14:59:25.738,98.4300,7
53965738850486,14:59:25.738,98.4600,10
53965738850486,14:59:25.738,98.4600,13
53965766124522,14:59:25.766,98.4600,87
53965766124522,14:59:25.766,98.4600,100
53974229836224,14:59:34.229,98.4400,1
53974229836224,14:59:34.229,98.4300,99
53974229925301,14:59:34.229,98.4300,1
53974231150493,14:59:34.231,98.4250,100
54048893406493,15:00:48.893,98.3800,10
54048893406493,15:00:48.893,98.3800,10
54048893406493,15:00:48.893,98.3800,100
54048893406493,15:00:48.893,98.3800,12
54073286969034,15:01:13.286,98.3700,88
54073287000038,15:01:13.287,98.3700,12
54073287000038,15:01:13.287,98.3700,2
54151612805080,15:02:31.612,98.3400,1
54161033931529,15:02:41.033,98.3100,2
54177769126838,15:02:57.769,98.3400,9
54177769126838,15:02:57.769,98.3500,5
54180876194447,15:03:00.876,98.3500,25
54180880796502,15:03:00.880,98.3500,4
54180880796502,15:03:00.880,98.3500,21
54180885157737,15:03:00.885,98.3500,25
54180889530492,15:03:00.889,98.3500,11
54180889554017,15:03:00.889,98.3500,14
54251279346922,15:04:11.279,98.2700,100
54251279379023,15:04:11.279,98.2700,2
54294535480480,15:04:54.535,98.1900,1
54294535480480,15:04:54.535,98.1900,20
54294536697414,15:04:54.536,98.2100,100
54294536697414,15:04:54.536,98.2100,20
54294537335510,15:04:54.537,98.1900,20
54334181696140,15:05:34.181,98.1500,15
54334181696140,15:05:34.181,98.1500,40
54368411823048,15:06:08.411,98.0500,1
54403337093386,15:06:43.337,98.0700,5
54403337093386,15:06:43.337,98.1000,100
54403337093386,15:06:43.337,98.1000,100
54403337093386,15:06:43.337,98.1000,5
54403337144522,15:06:43.337,98.1000,5
54403337175722,15:06:43.337,98.1000,100
54403337198590,15:06:43.337,98.1000,100
54403337198590,15:06:43.337,98.1000,88
54403337316880,15:06:43.337,98.1000,12
54403337335633,15:06:43.337,98.1000,10
54403338618691,15:06:43.338,98.1000,90
54403342148570,15:06:43.342,98.1000,100
54406427493332,15:06:46.427,98.1000,84
54406428704235,15:06:46.428,98.1200,5
54422053015135,15:07:02.053,98.0900,1
54422053459706,15:07:02.053,98.0900,91
54423235616099,15:07:03.235,98.0900,8
54423235616099,15:07:03.235,98.0900,7
54523968932239,15:08:43.968,98.0800,1
54523970076442,15:08:43.970,98.0800,29
54545696281258,15:09:05.696,98.0700,1
54548308810636,15:09:08.308,98.0600,100
54551888872682,15:09:11.888,98.0600,100
54551888872682,15:09:11.888,98.0600,6
54551889310587,15:09:11.889,98.0200,1
54598282899653,15:09:58.282,98.0400,1
54598282899653,15:09:58.282,98.0300,12
54598282930967,15:09:58.282,98.0300,88
54598284521687,15:09:58.284,98.0300,31
54600927497693,15:10:00.927,98.0400,5
54638955028323,15:10:38.955,98.0500,31
54638955028323,15:10:38.955,98.0400,40
54638955028323,15:10:38.955,98.0400,3
54638955028323,15:10:38.955,98.0400,26
54638955594281,15:10:38.955,98.0400,74
54638955594281,15:10:38.955,98.0400,1
54643472104210,15:10:43.472,98.0400,29
54643488681625,15:10:43.488,98.0300,200
54643491798357,15:10:43.491,98.0400,29
54645951932760,15:10:45.951,98.0100,100
54794280900832,15:13:14.280,97.9700,13
54802845767500,15:13:22.845,97.9900,20
54811554951161,15:13:31.554,98.0100,100
54811586648370,15:13:31.586,98.0400,11
54829011081611,15:13:49.011,98.0400,1
54829011186147,15:13:49.011,98.0200,100
54837449678516,15:13:57.449,97.9700,2
54837449800454,15:13:57.449,97.9600,1
54837449800454,15:13:57.449,97.9600,3
54837450013311,15:13:57.450,97.9600,2
54837450045803,15:13:57.450,97.9600,2
54864651319055,15:14:24.651,98.0000,53
54864652891999,15:14:24.652,98.0000,9
54884879718740,15:14:44.879,98.0400,100
54884880329887,15:14:44.880,98.0500,100
54907016125381,15:15:07.016,98.0400,1
54921903521232,15:15:21.903,98.0600,100
54921904302470,15:15:21.904,98.0600,9
54921904723406,15:15:21.904,98.0700,100
54921986543303,15:15:21.986,98.0800,100
54921986544860,15:15:21.986,98.0800,100
54921986601523,15:15:21.986,98.0800,100
54922455609950,15:15:22.455,98.0900,2
54923455376448,15:15:23.455,98.1000,100
54923960657493,15:15:23.960,98.0900,100
54928539433970,15:15:28.539,98.0900,5
54928539463138,15:15:28.539,98.0900,95
54928543428391,15:15:28.543,98.0900,100
54986050769584,15:16:26.050,98.1100,1
54998441488858,15:16:38.441,98.0800,2
55006011286496,15:16:46.011,98.0700,100
55006011286496,15:16:46.011,98.0700,100
55007922698630,15:16:47.922,98.0500,3
55027184285489,15:17:07.184,98.0600,100
55047950379560,15:17:27.950,98.0400,100
55106796351642,15:18:26.796,98.0200,50
55106796942508,15:18:26.796,98.0200,50
55118333043570,15:18:38.333,98.0000,1
55118333043570,15:18:38.333,98.0000,2
55118333043570,15:18:38.333,98.0000,7
55120273669519,15:18:40.273,97.9900,10
55133014242754,15:18:53.014,97.9800,1
55140022392001,15:19:00.022,97.9500,1
55154010727414,15:19:14.010,97.9500,2
55189023889482,15:19:49.023,97.9700,2
55195859595559,15:19:55.859,98.0000,2
55195859595559,15:19:55.859,98.0000,66
55219075117634,15:20:19.075,98.0500,1
55238035760077,15:20:38.035,98.0800,100
55295610520463,15:21:35.610,98.0600,100
55295610520463,15:21:35.610,98.0600,40
55295610520463,15:21:35.610,98.0600,100
55295613094928,15:21:35.613,98.0500,100
55299222202211,15:21:39.222,98.0300,100
55311040835977,15:21:51.040,98.0300,2
55376016551354,15:22:56.016,98.0200,1
55376433153370,15:22:56.433,98.0100,100
55383016726055,15:23:03.016,98.0000,1
55383633059890,15:23:03.633,97.9800,1
55383633086024,15:23:03.633,97.9800,1
55383633086024,15:23:03.633,97.9800,8
55383633086024,15:23:03.633,97.9800,100
55393399238004,15:23:13.399,97.9600,2
55393399238004,15:23:13.399,97.9600,10
55393399264781,15:23:13.399,97.9600,90
55393399264781,15:23:13.399,97.9600,100
55393399264781,15:23:13.399,97.9600,166
55393400418873,15:23:13.400,97.9500,2
55393400812036,15:23:13.400,97.9500,20
55445547159677,15:24:05.547,97.9300,2
55446461962597,15:24:06.461,97.9100,4
55446461962597,15:24:06.461,97.9100,6
55446461962597,15:24:06.461,97.9100,100
55446464021023,15:24:06.464,97.9000,3
55484853717968,15:24:44.853,97.8800,85
55503871822665,15:25:03.871,97.8700,2
55514621716787,15:25:14.621,97.8500,65
55534854218539,15:25:34.854,97.8600,1
55556449512746,15:25:56.449,97.8700,3
55558301093107,15:25:58.301,97.8400,85
55558301131235,15:25:58.301,97.8400,15
55558301131235,15:25:58.301,97.8400,100
55558301131235,15:25:58.301,97.8400,10
55558302884802,15:25:58.302,97.8300,10
55609010779073,15:26:49.010,97.8400,1
55618789235153,15:26:58.789,97.8300,1
55618789235153,15:26:58.789,97.8300,99
55618789271732,15:26:58.789,97.8300,1
55629871956991,15:27:09.871,97.8200,10
55629871956991,15:27:09.871,97.8200,100
55629873323222,15:27:09.873,97.8100,10
55630018402303,15:27:10.018,97.7900,2
55630018427981,15:27:10.018,97.7900,3
55673127169865,15:27:53.127,97.8200,100
55673127169865,15:27:53.127,97.8200,22
55673127169865,15:27:53.127,97.8200,2
55673136264966,15:27:53.136,97.8200,12
55682339669699,15:28:02.339,97.8200,1
55698032243667,15:28:18.032,97.8400,4
55709672219967,15:28:29.672,97.8600,2
55709673317179,15:28:29.673,97.8600,1
55751343502436,15:29:11.343,97.8800,82
55753043896343,15:29:13.043,97.8600,100
55753043896343,15:29:13.043,97.8600,21
55773283502705,15:29:33.283,97.8000,17
55773283530964,15:29:33.283,97.8000,83
55773283530964,15:29:33.283,97.8000,100
55794894066680,15:29:54.894,97.7600,100
55794894066680,15:29:54.894,97.7600,78
55794894100556,15:29:54.894,97.7600,22
55800029834835,15:30:00.029,97.7300,1
55800030315298,15:30:00.030,97.7300,1
55800030806869,15:30:00.030,97.7300,1
55803570926489,15:30:03.570,97.7200,1
55803571312584,15:30:03.571,97.7200,1
55808005526422,15:30:08.005,97.7100,3
55812775115834,15:30:12.775,97.7100,103
55812775115834,15:30:12.775,97.7000,19
55812775368180,15:30:12.775,97.7000,81
55812775368180,15:30:12.775,97.7000,19
55812775505374,15:30:12.775,97.7000,3
55828549471581,15:30:28.549,97.6900,100
55831228625535,15:30:31.228,97.7100,2
55831228625535,15:30:31.228,97.7100,12
55835475338028,15:30:35.475,97.7400,26
55851107062403,15:30:51.107,97.6800,51
55872213077880,15:31:12.213,97.7400,100
55872213825096,15:31:12.213,97.7400,100
55872402486786,15:31:12.402,97.7400,100
55881651824681,15:31:21.651,97.7700,100
55884026521393,15:31:24.026,97.7500,100
55884029047910,15:31:24.029,97.7400,100
55921037423052,15:32:01.037,97.8700,2
55933781013516,15:32:13.781,97.8500,6
55933781013516,15:32:13.781,97.8500,94
55933781045043,15:32:13.781,97.8500,6
55952256656482,15:32:32.256,97.8500,100
55968221009368,15:32:48.221,97.8500,23
55968221009368,15:32:48.221,97.8500,77
55968221037786,15:32:48.221,97.8500,23
55968221037786,15:32:48.221,97.8500,100
55972107999317,15:32:52.107,97.8400,88
55972108034537,15:32:52.108,97.8400,12
55999280085588,15:33:19.280,97.8200,3
56043304724336,15:34:03.304,97.8000,2
56043304763890,15:34:03.304,97.8000,7
56047527308228,15:34:07.527,97.7900,1
56047527308228,15:34:07.527,97.7900,1
56047527308228,15:34:07.527,97.7900,98
56047527337067,15:34:07.527,97.7900,2
56047527337067,15:34:07.527,97.7900,11
56047527533147,15:34:07.527,97.7900,100
56047527975970,15:34:07.527,97.7800,10
56047677658637,15:34:07.677,97.7600,1
56047677658637,15:34:07.677,97.7600,100
56047677658637,15:34:07.677,97.7600,4
56047678343179,15:34:07.678,97.7500,6
56086340045315,15:34:46.340,97.7350,1
56086340045315,15:34:46.340,97.7350,1
56092270878354,15:34:52.270,97.7100,100
56092270905112,15:34:52.270,97.7100,100
56092271278995,15:34:52.271,97.7000,44
56092290316575,15:34:52.290,97.7000,56
56104020959603,15:35:04.020,97.6600,3
56132918439327,15:35:32.918,97.7000,97
56132918881197,15:35:32.918,97.7000,3
56132918881197,15:35:32.918,97.7000,97
56132918927521,15:35:32.918,97.7000,3
56132918927521,15:35:32.918,97.7000,94
56132919343190,15:35:32.919,97.7000,6
56132919343190,15:35:32.919,97.7000,91
56132919420095,15:35:32.919,97.7000,9
56151924013911,15:35:51.924,97.6800,39
56151938486395,15:35:51.938,97.7000,25
56161444212040,15:36:01.444,97.7100,100
56168636461499,15:36:08.636,97.7100,17
56168639333990,15:36:08.639,97.7000,96
56168639360621,15:36:08.639,97.7000,76
56168640546996,15:36:08.640,97.7000,25
56230024760555,15:37:10.024,97.6600,3
56230024785984,15:37:10.024,97.6600,35
56238437555459,15:37:18.437,97.6500,1
56259963111604,15:37:39.963,97.6400,10
56259964989227,15:37:39.964,97.6300,5
56259964989227,15:37:39.964,97.6200,39
56259964989227,15:37:39.964,97.6200,100
56259965616152,15:37:39.965,97.6200,25
56259965616152,15:37:39.965,97.6200,5
56259966106849,15:37:39.966,97.6200,95
56274019688160,15:37:54.019,97.6100,1
56274019732507,15:37:54.019,97.6100,99
56274019732507,15:37:54.019,97.6100,36
56293348883123,15:38:13.348,97.5900,2
56297368560136,15:38:17.368,97.6000,16
56297369395818,15:38:17.369,97.6000,6
56297369510019,15:38:17.369,97.6000,76
56313777749478,15:38:33.777,97.6000,1
56313779916288,15:38:33.779,97.6100,6
56322681771164,15:38:42.681,97.6200,100
56323486585473,15:38:43.486,97.6300,100
56323532630076,15:38:43.532,97.6400,100
56343915861447,15:39:03.915,97.6600,100
56343915888272,15:39:03.915,97.6600,100
56366932648560,15:39:26.932,97.6800,24
56366932672535,15:39:26.932,97.6800,76
56366932673124,15:39:26.932,97.6800,76
56366932678567,15:39:26.932,97.6800,24
56367848815652,15:39:27.848,97.6900,12
56385516678929,15:39:45.516,97.7100,3
56400051271617,15:40:00.051,97.7200,1
56400927308883,15:40:00.927,97.7200,39
56401194145595,15:40:01.194,97.7000,1
56403551614102,15:40:03.551,97.7050,100
56403551671704,15:40:03.551,97.6900,94
56403551707636,15:40:03.551,97.6900,1
56403551896751,15:40:03.551,97.6900,1
56403552040884,15:40:03.552,97.6900,1
56403552155177,15:40:03.552,97.6900,1
56403555390536,15:40:03.555,97.6900,1
56403555640668,15:40:03.555,97.6900,1
56403555726621,15:40:03.555,97.6900,1
56407243510157,15:40:07.243,97.6900,1
56407243582271,15:40:07.243,97.6900,98
56407243582271,15:40:07.243,97.6900,16
56407243582271,15:40:07.243,97.6900,100
56407243619472,15:40:07.243,97.6900,1
56407243677985,15:40:07.243,97.6900,1
56427333114591,15:40:27.333,97.6900,1
56427333349554,15:40:27.333,97.6900,1
56427333596673,15:40:27.333,97.6900,1
56427335757336,15:40:27.335,97.6900,1
56427337477066,15:40:27.337,97.6900,1
56427337877792,15:40:27.337,97.6900,1
56427338204079,15:40:27.338,97.6900,1
56427338717668,15:40:27.338,97.6900,21
56427338717668,15:40:27.338,97.6900,100
56427338717668,15:40:27.338,97.6900,1
56427376879431,15:40:27.376,97.6900,1
56427377062227,15:40:27.377,97.6900,1
56427377447953,15:40:27.377,97.6900,1
56427382434013,15:40:27.382,97.6900,91
56427382434013,15:40:27.382,97.6800,9
56427382474225,15:40:27.382,97.6800,1
56427401694450,15:40:27.401,97.6800,1
56427415448530,15:40:27.415,97.6800,1
56427431415261,15:40:27.431,97.6800,1
56427713971675,15:40:27.713,97.6800,1
56427715654720,15:40:27.715,97.6800,1
56427719047930,15:40:27.719,97.6800,1
56427723064336,15:40:27.723,97.6800,1
56428045561064,15:40:28.045,97.6700,1
56428045806386,15:40:28.045,97.6700,1
56428045923181,15:40:28.045,97.6700,1
56428046240297,15:40:28.046,97.6700,1
56428046435846,15:40:28.046,97.6700,1
56428150495447,15:40:28.150,97.6700,1
56428150824128,15:40:28.150,97.6700,1
56428157273503,15:40:28.157,97.6700,1
56428157648756,15:40:28.157,97.6700,1
56428213505815,15:40:28.213,97.6700,1
56428213875344,15:40:28.213,97.6700,1
56428505343237,15:40:28.505,97.6700,1
56428644725387,15:40:28.644,97.6700,1
56428645254765,15:40:28.645,97.6700,1
56428646546304,15:40:28.646,97.6700,1
56428647239323,15:40:28.647,97.6700,1
56428928541556,15:40:28.928,97.6700,1
56428928926641,15:40:28.928,97.6700,1
56428931591176,15:40:28.931,97.6700,1
56429358194339,15:40:29.358,97.6700,1
56429358443258,15:40:29.358,97.6700,1
56429358531316,15:40:29.358,97.6700,1
56429358866938,15:40:29.358,97.6700,1
56429581642940,15:40:29.581,97.6700,1
56429582008478,15:40:29.582,97.6700,1
56429586068300,15:40:29.586,97.6700,1
56430356560502,15:40:30.356,97.6700,1
56430356894321,15:40:30.356,97.6700,1
56430357236105,15:40:30.357,97.6700,1
56430977567933,15:40:30.977,97.6700,1
56430978020121,15:40:30.978,97.6700,1
56430978118982,15:40:30.978,97.6700,1
56431004034328,15:40:31.004,97.6700,1
56431720265030,15:40:31.720,97.6700,1
56431720500206,15:40:31.720,97.6700,1
56431720656549,15:40:31.720,97.6700,1
56431720790264,15:40:31.720,97.6700,1
56431720880787,15:40:31.720,97.6700,1
56431721965408,15:40:31.721,97.6700,1
56432769724197,15:40:32.769,97.6700,1
56432770149906,15:40:32.770,97.6700,1
56432859386521,15:40:32.859,97.6700,1
56432859469219,15:40:32.859,97.6800,6
56432859472404,15:40:32.859,97.6800,94
56463192371414,15:41:03.192,97.7200,1
56463192939818,15:41:03.192,97.7200,1
56463193218818,15:41:03.193,97.7200,1
56463208673763,15:41:03.208,97.7200,1
56463221267440,15:41:03.221,97.7200,1
56463221815179,15:41:03.221,97.7200,1
56463243984410,15:41:03.243,97.7200,1
56463367873550,15:41:03.367,97.7200,1
56463438424455,15:41:03.438,97.7200,1
56463438870228,15:41:03.438,97.7200,1
56463558870735,15:41:03.558,97.7200,1
56463725225465,15:41:03.725,97.7200,1
56464927934786,15:41:04.927,97.7300,5
56464927934786,15:41:04.927,97.7300,95
56469117919600,15:41:09.117,97.7500,100
56469117943226,15:41:09.117,97.7500,100
56472929063013,15:41:12.929,97.8200,26
56473031328745,15:41:13.031,97.8200,1
56478763310202,15:41:18.763,97.8100,100
56478763351381,15:41:18.763,97.8100,1
56478763449742,15:41:18.763,97.8100,1
56478766207692,15:41:18.766,97.8100,1
56478771802771,15:41:18.771,97.8100,97
56478771802771,15:41:18.771,97.8100,103
56478771836764,15:41:18.771,97.8100,1
56478772042814,15:41:18.772,97.8100,1
56478772212857,15:41:18.772,97.8100,1
56478795645947,15:41:18.795,97.8100,1
56478836829908,15:41:18.836,97.8100,1
56478876883842,15:41:18.876,97.8100,1
56478878165436,15:41:18.878,97.8100,1
56478888430806,15:41:18.888,97.8100,1
56478888598510,15:41:18.888,97.8100,1
56478888750418,15:41:18.888,97.8100,1
56478888877844,15:41:18.888,97.8100,1
56478888941231,15:41:18.888,97.8100,1
56478921938582,15:41:18.921,97.8100,1
56478927008822,15:41:18.927,97.8100,1
56478927095593,15:41:18.927,97.8100,1
56478955702714,15:41:18.955,97.8100,1
56479141999268,15:41:19.141,97.8100,1
56479154188106,15:41:19.154,97.8100,1
56479159809865,15:41:19.159,97.8100,1
56479160154390,15:41:19.160,97.8100,1
56479823398211,15:41:19.823,97.8100,1
56480464126966,15:41:20.464,97.8100,1
56480464261385,15:41:20.464,97.8100,75
56480489895771,15:41:20.489,97.7950,100
56517029175604,15:41:57.029,97.7300,2
56523413151615,15:42:03.413,97.7500,2
56523443233768,15:42:03.443,97.7600,8
56523443260640,15:42:03.443,97.7600,67
56523443338583,15:42:03.443,97.7600,8
56523443484616,15:42:03.443,97.7600,8
56523443568502,15:42:03.443,97.7600,1
56523443600506,15:42:03.443,97.7600,7
56527629254352,15:42:07.629,97.7600,39
56557929573976,15:42:37.929,97.7600,7
56578255314328,15:42:58.255,97.7800,42
56578255314328,15:42:58.255,97.7800,200
56580027725912,15:43:00.027,97.8300,3
56588484885769,15:43:08.484,97.8500,38
56605936370962,15:43:25.936,97.8400,87
56611523736398,15:43:31.523,97.8400,13
56611523736398,15:43:31.523,97.8400,100
56632548666298,15:43:52.548,97.8500,100
56632549152026,15:43:52.549,97.8500,9
56670289900265,15:44:30.289,97.8600,39
56700027544573,15:45:00.027,97.8700,8
56700027544573,15:45:00.027,97.8700,2
56700029677537,15:45:00.029,97.8800,100
56703667372135,15:45:03.667,97.8800,51
56708926308027,15:45:08.926,97.8800,39
56740209939081,15:45:40.209,97.8900,100
56740210101299,15:45:40.210,97.8900,100
56746219760816,15:45:46.219,97.9000,100
56746219826580,15:45:46.219,97.9100,12
56746221054643,15:45:46.221,97.9100,100
56747477688752,15:45:47.477,97.9100,92
56747477718520,15:45:47.477,97.9100,8
56769917325198,15:46:09.917,97.9000,5
56769917422406,15:46:09.917,97.9000,5
56769918105680,15:46:09.918,97.9000,5
56769918204536,15:46:09.918,97.9000,5
56769918283778,15:46:09.918,97.9000,5
56769919803886,15:46:09.919,97.9000,75
56769919803886,15:46:09.919,97.9000,1
56769919803886,15:46:09.919,97.9000,3
56769920216143,15:46:09.920,97.8900,5
56769920443315,15:46:09.920,97.8900,5
56769921012504,15:46:09.921,97.8900,5
56797478662826,15:46:37.478,97.8900,18
56837026877454,15:47:17.026,97.9000,3
56855054302926,15:47:35.054,97.9000,36
56857066626481,15:47:37.066,97.9000,1
56870175944788,15:47:50.175,97.8900,67
56870175944788,15:47:50.175,97.8900,16
56898004040856,15:48:18.004,97.9000,39
56898004040856,15:48:18.004,97.9000,200
56898004040856,15:48:18.004,97.9000,11
56898005970664,15:48:18.005,97.8800,100
56898251304936,15:48:18.251,97.8800,2
56910198560536,15:48:30.198,97.8800,87
56910198586712,15:48:30.198,97.8800,111
56958072514976,15:49:18.072,97.8600,3
56963073715261,15:49:23.073,97.8600,14
56969889312223,15:49:29.889,97.8700,100
56975186430676,15:49:35.186,97.8700,21
56994074003395,15:49:54.074,97.8500,11
56994074003395,15:49:54.074,97.8500,6
56994074007128,15:49:54.074,97.8500,19
56994074007128,15:49:54.074,97.8500,81
56994074699899,15:49:54.074,97.8500,100
56994074727112,15:49:54.074,97.8500,19
56994074727112,15:49:54.074,97.8500,39
56999972378814,15:49:59.972,97.8500,3
56999972378814,15:49:59.972,97.8500,15
57005401882011,15:50:05.401,97.8500,100
57010526184150,15:50:10.526,97.8500,15
57016384012526,15:50:16.384,97.8600,100
57016390506597,15:50:16.390,97.8800,59
57016390926056,15:50:16.390,97.8800,13
57016390958965,15:50:16.390,97.8800,28
57016391011690,15:50:16.391,97.8900,5
57081034827168,15:51:21.034,97.8800,3
57095237159685,15:51:35.237,97.8800,34
57095238407129,15:51:35.238,97.8700,100
57095238407129,15:51:35.238,97.8700,1
57114510552835,15:51:54.510,97.8700,38
57114511292467,15:51:54.511,97.8700,92
57140236173429,15:52:20.236,97.8300,10
57146040887275,15:52:26.040,97.8200,100
57151869427392,15:52:31.869,97.8200,99
57151869460861,15:52:31.869,97.8200,101
57151869460861,15:52:31.869,97.8200,23
57151870063258,15:52:31.870,97.8200,77
57153021993479,15:52:33.021,97.8000,3
57162551639514,15:52:42.551,97.8000,32
57175006701828,15:52:55.006,97.8300,72
57175007594364,15:52:55.007,97.8300,10
57175007660584,15:52:55.007,97.8300,18
57175007660584,15:52:55.007,97.8300,59
57175007660584,15:52:55.007,97.8300,4
57175029509772,15:52:55.029,97.8300,100
57175155552137,15:52:55.155,97.8400,80
57175155577285,15:52:55.155,97.8400,20
57202017015160,15:53:22.017,97.8400,38
57203262348856,15:53:23.262,97.8300,200
57215241140722,15:53:35.241,97.8400,100
57215244756409,15:53:35.244,97.8500,100
57215245067874,15:53:35.245,97.8500,100
57215246182596,15:53:35.246,97.8600,100
57215246464332,15:53:35.246,97.8600,100
57217613310215,15:53:37.613,97.8700,100
57217613310215,15:53:37.613,97.8700,100
57217613617211,15:53:37.613,97.8700,8
57241283975415,15:54:01.283,97.8700,100
57241285320060,15:54:01.285,97.8600,100
57248628827056,15:54:08.628,97.8600,3
57248628827056,15:54:08.628,97.8600,1
57267627994338,15:54:27.627,97.8500,6
57270750888103,15:54:30.750,97.8600,34
57270750899734,15:54:30.750,97.8600,22
57270750949737,15:54:30.750,97.8600,40
57270750949737,15:54:30.750,97.8600,60
57270751015919,15:54:30.751,97.8600,40
57270751015919,15:54:30.751,97.8600,1
57270751015919,15:54:30.751,97.8600,59
57270751341315,15:54:30.751,97.8600,41
57270751341315,15:54:30.751,97.8600,100
57283458960480,15:54:43.458,97.8500,39
57283458960480,15:54:43.458,97.8500,61
57283459705289,15:54:43.459,97.8500,39
57283459705289,15:54:43.459,97.8500,61
57283459735608,15:54:43.459,97.8500,39
57292590463225,15:54:52.590,97.8500,100
57300156403319,15:55:00.156,97.8600,32
57300156403319,15:55:00.156,97.8600,68
57300938881682,15:55:00.938,97.8600,32
57300938881682,15:55:00.938,97.8600,44
57300939033255,15:55:00.939,97.8600,56
57300939033255,15:55:00.939,97.8600,44
57300940176840,15:55:00.940,97.8600,56
57310163760641,15:55:10.163,97.8800,100
57324053784586,15:55:24.053,97.8800,1
57352263051471,15:55:52.263,97.8900,100
57352263081325,15:55:52.263,97.8900,8
57370018868736,15:56:10.018,97.9000,100
57370018868736,15:56:10.018,97.9000,97
57370018911131,15:56:10.018,97.9000,3
57370018911131,15:56:10.018,97.9000,100
57370018911131,15:56:10.018,97.9000,2
57385080120380,15:56:25.080,97.9000,8
57395339359024,15:56:35.339,97.9000,90
57395606349837,15:56:35.606,97.9100,100
57395606349837,15:56:35.606,97.9100,100
57395606349837,15:56:35.606,97.9100,12
57395606349837,15:56:35.606,97.9100,88
57395606556087,15:56:35.606,97.9100,12
57395606556087,15:56:35.606,97.9100,88
57395606832086,15:56:35.606,97.9100,12
57395636963901,15:56:35.636,97.9200,100
57395636991877,15:56:35.636,97.9200,100
57395637582392,15:56:35.637,97.9200,100
57420011094904,15:57:00.011,97.9500,100
57420618065499,15:57:00.618,97.9400,37
57422787562213,15:57:02.787,97.9400,5
57452324631952,15:57:32.324,97.9500,2
57475016660087,15:57:55.016,97.9300,100
57481461541105,15:58:01.461,97.9300,38
57481461759472,15:58:01.461,97.9300,100
57482815419737,15:58:02.815,97.9200,80
57482815445363,15:58:02.815,97.9200,20
57484168442795,15:58:04.168,97.9100,204
57508858998689,15:58:28.858,97.8600,8
57508858998689,15:58:28.858,97.8600,1
57508858998689,15:58:28.858,97.8600,100
57508859314752,15:58:28.859,97.8600,100
57526120954143,15:58:46.120,97.8700,100
57526121013349,15:58:46.121,97.8700,31
57526121369419,15:58:46.121,97.8700,20
57526123096355,15:58:46.123,97.8700,49
57526123096355,15:58:46.123,97.8700,51
57526131643408,15:58:46.131,97.8700,10
57526135118942,15:58:46.135,97.8700,39
57529898679297,15:58:49.898,97.8800,100
57536903305576,15:58:56.903,97.8800,100
57537033767094,15:58:57.033,97.8800,100
57541990561625,15:59:01.990,97.8800,37
57541990999327,15:59:01.990,97.8800,63
57541990999327,15:59:01.990,97.8900,20
57542260873300,15:59:02.260,97.9000,16
57542517956056,15:59:02.517,97.9100,100
57546948988693,15:59:06.948,97.9300,65
57552157011028,15:59:12.157,97.9400,4
57560278042216,15:59:20.278,97.9400,20
57560278042216,15:59:20.278,97.9400,65
57560278042216,15:59:20.278,97.9400,15
57560890835660,15:59:20.890,97.9400,20
57567147855261,15:59:27.147,97.9500,100
57568024177248,15:59:28.024,97.9500,29
57575020935723,15:59:35.020,97.9750,91
57586007556211,15:59:46.007,97.9900,28
57588312825736,15:59:48.312,97.9900,100
57593171877282,15:59:53.171,97.9400,92
57594062711726,15:59:54.062,97.9500,2
57594375941097,15:59:54.375,97.9600,5
57595059984190,15:59:55.059,97.9600,100
57600314869394,16:00:00.314,0.0000,0
